Time,Concentration,Voltage,I_INT,I_SEI
0.0,19986.0,0.24138323323962024,0.06682032966944268,-2.712945373180183e-10
289.1566265060241,19895.11234698321,0.24612256084889947,0.06682032967005298,-2.719048422400652e-10
578.3132530120482,19833.407609796646,0.250907040201986,0.06682032967046757,-2.723194187826997e-10
867.4698795180723,19773.168864027684,0.2556993313495375,0.06682032967088042,-2.727322546164897e-10
1156.6265060240964,19713.076206451216,0.26049805741540905,0.06682032967129915,-2.731510053458609e-10
1445.7831325301206,19652.9970755748,0.26530336159354173,0.06682032967172367,-2.7357553160057654e-10
1734.9397590361446,19592.920595123174,0.270115496686359,0.06682032967215318,-2.7400502641948364e-10
2024.0963855421687,19532.84431231465,0.2749347387105415,0.06682032967258673,-2.7443856573538523e-10
2313.253012048193,19472.768085210788,0.27976125383492056,0.06682032967302368,-2.748755146275629e-10
2602.409638554217,19412.69186506039,0.28459522035691,0.06682032967346332,-2.753151948963297e-10
2891.566265060241,19352.615596692023,0.289436915325456,0.06682032967390475,-2.757566139794169e-10
3180.7228915662654,19292.53929617493,0.2942862633461196,0.06682032967434819,-2.7620004512789854e-10
3469.879518072289,19232.46298599858,0.2991434779985908,0.06682032967479265,-2.766444872687031e-10
3759.0361445783133,19172.386683748977,0.30400872629510417,0.06682032967523732,-2.770891575958869e-10
4048.1927710843374,19112.310375318637,0.3088818742584948,0.06682032967568284,-2.7753468407614535e-10
4337.349397590362,19052.234068156686,0.3137632055393985,0.06682032967612775,-2.77979594835144e-10
4626.506024096386,18992.15776206588,0.3186527126264731,0.06682032967657209,-2.784239288495342e-10
4915.6626506024095,18932.08145535697,0.32355033119628807,0.06682032967701616,-2.7886801989613265e-10
5204.819277108434,18872.005149624783,0.32845628627463674,0.06682032967745843,-2.7931028528014665e-10
5493.975903614458,18811.928844137008,0.33337047453248514,0.06682032967789961,-2.7975145175525864e-10
5783.132530120482,18751.852538856536,0.3382929033182245,0.06682032967833952,-2.801913747613027e-10
6072.289156626506,18691.776233624994,0.34322361918709665,0.06682032967877737,-2.8062921824027373e-10
6361.445783132531,18631.69992845228,0.34816261922938097,0.0668203296792132,-2.8106503444612436e-10
6650.6024096385545,18571.62362329396,0.3531099165043939,0.06682032967964674,-2.8149858885432335e-10
6939.759036144578,18511.547318105615,0.3580655240714523,0.0668203296800778,-2.8192964694033995e-10
7228.915662650603,18451.471012842805,0.363029454989873,0.06682032968050614,-2.82357974179643e-10
7518.0722891566265,18391.394707676005,0.368001546235031,0.06682032968093204,-2.827838844482791e-10
7807.228915662651,18331.318402592828,0.372981784615139,0.06682032968135539,-2.8320722497886454e-10
8096.385542168675,18271.24209751121,0.37797021402507286,0.06682032968177581,-2.8362766521177056e-10
8385.5421686747,18211.16579241992,0.38296682032103485,0.06682032968219322,-2.840450553445799e-10
8674.698795180724,18151.08948730773,0.38797158935922715,0.06682032968260741,-2.844592455748752e-10
8963.855421686747,18091.013182163842,0.3929844998146152,0.06682032968301818,-2.84870019653711e-10
9253.012048192772,18030.936876979726,0.39800549263590457,0.06682032968342497,-2.8527681225870194e-10
9542.168674698796,17970.860571742698,0.4030345776702103,0.06682032968382785,-2.8567969557048726e-10
9831.325301204819,17910.784266441795,0.40807173657600665,0.06682032968422665,-2.8607848094592343e-10
10120.481927710844,17850.707961066037,0.41311695101176793,0.06682032968462112,-2.8647297974186695e-10
10409.638554216868,17790.63165560444,0.41817020263596816,0.06682032968501117,-2.8686300331517405e-10
10698.795180722893,17730.555350198272,0.4232310569087868,0.0668203296853975,-2.872493543812955e-10
10987.951807228916,17670.479044877982,0.4282993822246641,0.06682032968578026,-2.8763211408500996e-10
11277.10843373494,17610.402739583595,0.4333752941975058,0.06682032968615893,-2.880107747096224e-10
11566.265060240965,17550.326434324328,0.4384587192519019,0.06682032968653343,-2.88385279175685e-10
11855.421686746988,17490.250129109427,0.4435495838124424,0.06682032968690373,-2.887555704037495e-10
12144.578313253012,17430.173823948095,0.44864781430371736,0.06682032968726977,-2.8912159131436805e-10
12433.734939759037,17370.097518770996,0.45375347685172396,0.06682032968763087,-2.8948270311591637e-10
12722.891566265062,17310.021213550688,0.4588665630587986,0.06682032968798673,-2.89838577330902e-10
13012.048192771084,17249.94490833394,0.4639869326293621,0.06682032968833759,-2.9018943470052037e-10
13301.204819277109,17189.86860311952,0.4691145305336946,0.0668203296886833,-2.9053514092166534e-10
13590.361445783134,17129.792297906242,0.4742493017420762,0.06682032968902372,-2.908755616912307e-10
13879.518072289156,17069.715992692894,0.479391191224787,0.0668203296893587,-2.9121056270611003e-10
14168.674698795181,17009.639687479885,0.4845399949793343,0.06682032968968837,-2.9154023004146987e-10
14457.831325301206,16949.563382267213,0.4896955445581373,0.06682032969001274,-2.918645971754154e-10
14746.98795180723,16889.48707705264,0.49485788218890164,0.06682032969033153,-2.9218338593006984e-10
15036.144578313253,16829.410771835195,0.5000269310011678,0.06682032969064464,-2.9249649431175117e-10
15325.301204819278,16769.334466613895,0.505202614124476,0.06682032969095197,-2.928038203267772e-10
15614.457831325302,16709.258161387785,0.5103848546883668,0.06682032969125341,-2.931052619814658e-10
15903.614457831327,16649.181856161555,0.515573527953696,0.06682032969154883,-2.9340066067739664e-10
16192.77108433735,16589.10555094083,0.5207685014113491,0.06682032969183802,-2.936898486281563e-10
16481.927710843374,16529.029245719685,0.5259697399287947,0.06682032969212094,-2.939727731951793e-10
16771.0843373494,16468.952940498137,0.5311771583930419,0.0668203296923975,-2.94249322637987e-10
17060.240963855424,16408.87663527619,0.5363906716910999,0.06682032969266755,-2.945193852161007e-10
17349.39759036145,16348.800330053844,0.5416101947099773,0.066820329692931,-2.9478284918904176e-10
17638.55421686747,16288.72402483148,0.5468355898679538,0.06682032969318762,-2.950394590312005e-10
17927.710843373494,16228.647719609726,0.5520666822616118,0.06682032969343701,-2.952888569407152e-10
18216.86746987952,16168.57141438816,0.5573034482404977,0.06682032969367925,-2.955310996088383e-10
18506.024096385543,16108.495109166866,0.5625457918131195,0.0668203296939142,-2.957660454836829e-10
18795.180722891568,16048.418803945926,0.567793616987985,0.06682032969414171,-2.959935530133621e-10
19084.337349397592,15988.34249872542,0.5730468277736018,0.06682032969436162,-2.962134806459891e-10
19373.493975903617,15928.266193505215,0.5783053023544265,0.06682032969457362,-2.9642546364871174e-10
19662.650602409638,15868.189888284805,0.5835688722449303,0.06682032969477689,-2.9662873394948537e-10
19951.807228915663,15808.113583064522,0.5888374727165903,0.06682032969497156,-2.9682342018251006e-10
20240.963855421687,15748.037277844316,0.5941109920451527,0.0668203296951574,-2.9700924482758293e-10
20530.12048192771,15687.960972624136,0.5993893170621678,0.06682032969533407,-2.9718591788322357e-10
20819.277108433736,15627.884667403905,0.6046723331549894,0.0668203296955013,-2.973531368666734e-10
21108.43373493976,15567.808362183541,0.6099599242667749,0.06682032969565874,-2.9751058681389604e-10
21397.590361445786,15507.73205696295,0.6152519728964849,0.0668203296958061,-2.9765794027957734e-10
21686.746987951807,15447.655751742026,0.6205483600988837,0.06682032969594301,-2.977948573371252e-10
21975.90361445783,15387.579446520644,0.6258489654845395,0.06682032969606914,-2.979209855786696e-10
22265.060240963856,15327.503141298681,0.6311536672198234,0.06682032969618412,-2.980359601150627e-10
22554.21686746988,15267.42683607599,0.6364623420269101,0.06682032969628755,-2.981394035758786e-10
22843.373493975905,15207.350530852895,0.6417748936941353,0.06682032969637786,-2.982297007761024e-10
23132.53012048193,15147.27422563192,0.6470913558966995,0.06682032969644773,-2.982995796331081e-10
23421.686746987954,15087.197920410972,0.6524114874078929,0.06682032969650167,-2.9835350839430505e-10
23710.843373493975,15027.12161519006,0.657735171050426,0.0668203296965387,-2.983905492942908e-10
24000.0,14967.045309969195,0.6630622889785878,0.06682032969655789,-2.984097187447405e-10
24289.156626506025,14906.969004748396,0.6683927226782446,0.06682032969655816,-2.984099873344061e-10
24578.31325301205,14846.892699527665,0.6737263529668412,0.06682032969653844,-2.9839027982911704e-10
24867.469879518074,14786.816394307025,0.6790630599934,0.06682032969649764,-2.983494751717796e-10
25156.6265060241,14726.740089086483,0.6844027232385214,0.06682032969643456,-2.982864064823772e-10
25445.783132530123,14666.66378386606,0.6897452215143831,0.06682032969634802,-2.9819986105797105e-10
25734.939759036144,14606.587478645773,0.6950904329647419,0.06682032969623673,-2.980885803726986e-10
26024.09638554217,14546.51117342564,0.7004382350649314,0.06682032969609941,-2.9795126007777516e-10
26313.253012048193,14486.434868205655,0.7057886172701331,0.06682032969593396,-2.97785806298379e-10
26602.409638554218,14426.358562984875,0.7111462214066301,0.0668203296957075,-2.975593600011842e-10
26891.566265060243,14366.282257763996,0.7165075735339993,0.06682032969544056,-2.972924105485959e-10
27180.722891566267,14306.205952543103,0.7218723282932888,0.06682032969512072,-2.969725817845609e-10
27469.879518072292,14246.129647322168,0.7272406026101661,0.06682032969474555,-2.9659740502340457e-10
27759.036144578313,14186.053342101199,0.7326123994875422,0.06682032969430966,-2.9616152084663527e-10
28048.192771084337,14125.977036880191,0.7379877218727449,0.06682032969380727,-2.956591201039347e-10
28337.349397590362,14065.900731659234,0.7433663913344826,0.06682032969322221,-2.950740593479192e-10
28626.506024096387,14005.824426438308,0.7487484563942992,0.06682032969255208,-2.9440391367264757e-10
28915.66265060241,13945.748121217428,0.7541338883286621,0.06682032969178968,-2.9364148478360384e-10
29204.819277108436,13885.67181599661,0.7595226584140395,0.06682032969092774,-2.927795743862721e-10
29493.97590361446,13825.595510775809,0.7649154525229992,0.06682032968994765,-2.917994921612644e-10
29783.132530120485,13765.519205554943,0.7703132526382106,0.06682032968882595,-2.906777857919624e-10
30072.289156626506,13705.442900334076,0.7757155806121603,0.06682032968756264,-2.8941448455138124e-10
30361.44578313253,13645.366595113195,0.7811226267529177,0.06682032968614701,-2.8799886771238256e-10
30650.602409638555,13585.290289892306,0.7865345813685528,0.06682032968456834,-2.864202145478283e-10
30939.75903614458,13525.213984671454,0.791951634038025,0.06682032968279339,-2.846452526099167e-10
31228.915662650605,13465.13767945063,0.7973739751839357,0.06682032968081496,-2.82666803691281e-10
31518.07228915663,13405.06137422983,0.8028017951172864,0.06682032967862238,-2.8047423776042005e-10
31807.228915662654,13344.985069009057,0.8082352840510557,0.06682032967620204,-2.780538928700942e-10
32096.385542168675,13284.90876378823,0.8136720335429154,0.06682032967352752,-2.7537938057168315e-10
32385.5421686747,13224.832458567354,0.8191122045352489,0.06682032967060945,-2.7246130710605254e-10
32674.698795180724,13164.756153346496,0.8245514350151795,0.06682032966743559,-2.692874357629636e-10
32963.85542168675,13104.679848125676,0.8299872701172304,0.066820329663997,-2.658488378940256e-10
33253.01204819277,13044.603542904799,0.8354117291968678,0.06682032966030581,-2.621576636188501e-10
33542.1686746988,12984.527237683988,0.8408211149905715,0.06682032965637057,-2.582224022718037e-10
33831.32530120482,12924.45093246311,0.8462161588130085,0.06682032965220418,-2.5405602897583304e-10
34120.48192771085,12864.37462724223,0.8515971353493451,0.06682032964784053,-2.496923855105356e-10
34409.63855421687,12804.298322021348,0.856950410516804,0.06682032964329516,-2.451470168752584e-10
34698.7951807229,12744.22201680046,0.8622705706412702,0.06682032963861186,-2.4046369141956447e-10
34987.951807228914,12684.145711579647,0.8675560097774669,0.06682032963383244,-2.3568428422520227e-10
35277.10843373494,12624.0694063588,0.8727897912131487,0.06682032962899685,-2.3084869701469735e-10
35566.26506024096,12563.99310113798,0.877961399119016,0.0668203296241539,-2.260057586964044e-10
35855.42168674699,12503.916795917177,0.8830624549801026,0.06682032961934356,-2.2119538856204092e-10
36144.57831325301,12443.840490696297,0.888081595711651,0.06682032961462306,-2.1647489469219283e-10
36433.73493975904,12383.764185475384,0.8930110732287403,0.0668203296100299,-2.118817569695685e-10
36722.89156626506,12323.687880254489,0.897843759160124,0.06682032960559862,-2.0745051036660067e-10
37012.048192771086,12263.611575033648,0.9025735444672587,0.06682032960135914,-2.0321099343097533e-10
37301.20481927711,12203.535269812823,0.9071959688256909,0.06682032959733561,-1.9918745191183466e-10
37590.361445783135,12143.458964591964,0.9117079597116259,0.06682032959354564,-1.9539747467792613e-10
37879.51807228916,12083.382659371051,0.916108066182582,0.06682032959000046,-1.9185230745913845e-10
38168.674698795185,12023.306354150172,0.9203973072203527,0.0668203295867029,-1.8855476946651104e-10
38457.83132530121,11963.230048929272,0.9245770829765851,0.06682032958365226,-1.8550413670763995e-10
38746.987951807234,11903.15374370832,0.9286505589586999,0.0668203295808409,-1.8269273520731072e-10
39036.14457831326,11843.077438487302,0.9326219938525195,0.0668203295782595,-1.8011132429394047e-10
39325.301204819276,11783.001133266287,0.9364963832254901,0.06682032957590343,-1.777552675558862e-10
39614.4578313253,11722.924828045265,0.94028045881171,0.0668203295737566,-1.7560847251022302e-10
39903.614457831325,11662.848522824232,0.9439791572860015,0.06682032957179762,-1.7364951209477419e-10
40192.77108433735,11602.772217603197,0.9475986031143794,0.06682032957000218,-1.7185400437120424e-10
40481.927710843374,11542.695912382178,0.9511465003055602,0.06682032956834533,-1.7019694502077286e-10
40771.0843373494,11482.619607161243,0.954628159836314,0.06682032956684149,-1.6869305812579828e-10
41060.24096385542,11422.543301940424,0.958051380382417,0.06682032956546803,-1.673197248390303e-10
41349.39759036145,11362.466996719642,0.9614190133211198,0.06682032956421828,-1.6607010125361826e-10
41638.55421686747,11302.390691498767,0.9647320632381934,0.06682032956308838,-1.6494011081713926e-10
41927.7108433735,11242.314386277789,0.9679958566623779,0.0668203295620655,-1.6391693760412787e-10
42216.86746987952,11182.238081056958,0.9712244922899331,0.06682032956108681,-1.629382756440314e-10
42506.02409638555,11122.161775836274,0.9744235250329523,0.06682032956012943,-1.6198124722702214e-10
42795.18072289157,11062.08547061548,0.9775848410267112,0.06682032955924856,-1.6110053916663163e-10
43084.337349397596,11002.009165394556,0.9807109353599752,0.06682032955843974,-1.6029160362215816e-10
43373.49397590361,10941.932860173669,0.9838114845293966,0.06682032955768502,-1.5953687087377905e-10
43662.65060240964,10881.856554952783,0.9868875275000856,0.06682032955698262,-1.5883447618226238e-10
43951.80722891566,10821.780249731906,0.9899409936236248,0.06682032955629758,-1.5814941447065117e-10
44240.96385542169,10761.70394451104,0.992974171702663,0.0668203295556374,-1.574892635075557e-10
44530.12048192771,10701.627639290171,0.9959884081666067,0.0668203295550199,-1.5687176057621627e-10
44819.27710843374,10641.551334069309,0.9989852149580124,0.06682032955441697,-1.562688256390696e-10
45108.43373493976,10581.475028848452,1.001965959046818,0.06682032955381195,-1.5566381645174894e-10
45397.590361445786,10521.39872362758,1.004931410642352,0.06682032955324295,-1.5509479751173464e-10
45686.74698795181,10461.322418406684,1.00788274636219,0.06682032955270763,-1.5455946489976285e-10
45975.903614457835,10401.246113185785,1.010820660264858,0.0668203295521856,-1.540374182329479e-10
46265.06024096386,10341.16980796489,1.013745913271498,0.0668203295516613,-1.5351309301509436e-10
46554.216867469884,10281.093502744023,1.016659104600469,0.06682032955110738,-1.529592294801262e-10
46843.37349397591,10221.017197523155,1.019560628799001,0.0668203295505651,-1.5241700794022566e-10
47132.53012048193,10160.940892302278,1.0224507870437691,0.0668203295500483,-1.51900193647468e-10
47421.68674698795,10100.864587081409,1.0253297750103179,0.06682032954955369,-1.5140558398086988e-10
47710.843373493975,10040.788281860538,1.028197774571194,0.06682032954908498,-1.509368197398921e-10
48000.0,9980.711976639677,1.0310554037262856,0.06682032954860531,-1.5045713220415713e-10
48289.156626506025,9920.635671418822,1.0339025157236301,0.06682032954813101,-1.4998283706680325e-10
48578.31325301205,9860.559366197973,1.0367391240983084,0.06682032954765951,-1.4951131592899179e-10
48867.469879518074,9800.483060977125,1.0395654636140355,0.06682032954719593,-1.490477508839014e-10
49156.6265060241,9740.406755756274,1.0423815866453299,0.066820329546742,-1.48593811077548e-10
49445.78313253012,9680.330450535423,1.0451873814079642,0.06682032954629631,-1.481481637097152e-10
49734.93975903615,9620.254145314562,1.0479828155078086,0.06682032954585951,-1.4771136041603536e-10
50024.09638554217,9560.177840093706,1.0507681361371275,0.06682032954543028,-1.4728215392357652e-10
50313.2530120482,9500.101534872845,1.0535431658319327,0.06682032954500997,-1.468618237927444e-10
50602.40963855422,9440.025229651981,1.0563078387256521,0.06682032954459904,-1.4645088253132574e-10
50891.566265060246,9379.948924431113,1.0590622484101417,0.06682032954419777,-1.4604961819369794e-10
51180.72289156627,9319.872619210244,1.061806426946972,0.06682032954380661,-1.4565844788451238e-10
51469.87951807229,9259.796313989375,1.06454029667677,0.06682032954342616,-1.452779948466806e-10
51759.03614457831,9199.720008768507,1.067263875655246,0.06682032954305689,-1.449087287200551e-10
52048.19277108434,9139.643703547636,1.0699775353501817,0.06682032954269847,-1.4455029953863844e-10
52337.34939759036,9079.567398326766,1.0726811591636576,0.06682032954235159,-1.4420343248563068e-10
52626.50602409639,9019.491093105898,1.0753747995388607,0.06682032954201665,-1.4386848661020243e-10
52915.66265060241,8959.41478788503,1.0780585089189776,0.06682032954169399,-1.435458209615244e-10
53204.819277108436,8899.338482664165,1.0807323397471957,0.06682032954138395,-1.4323579458876723e-10
53493.97590361446,8839.262177443305,1.0833963444667007,0.06682032954108692,-1.4293876654110157e-10
53783.132530120485,8779.185872222446,1.0860507226319323,0.06682032954080279,-1.4265465158023995e-10
54072.28915662651,8719.109567001584,1.088697097036764,0.0668203295405272,-1.4237906617376608e-10
54361.445783132534,8659.03326178072,1.0913346071936771,0.06682032954026326,-1.4211512649280354e-10
54650.60240963856,8598.956956559858,1.0939634209411229,0.06682032954001098,-1.4186284308382168e-10
54939.759036144584,8538.880651338995,1.0965837061175527,0.06682032953977037,-1.4162222649328983e-10
55228.91566265061,8478.804346118137,1.0991956305614174,0.06682032953954142,-1.4139328726767733e-10
55518.072289156626,8418.728040897278,1.1017993621111688,0.06682032953932417,-1.411760359534535e-10
55807.22891566265,8358.651735676418,1.1043979109581548,0.06682032953911028,-1.4096214176608907e-10
56096.385542168675,8298.575430455563,1.1069909643612328,0.06682032953890116,-1.4075302558835215e-10
56385.5421686747,8238.499125234708,1.109578193090897,0.0668203295386983,-1.4055015669070133e-10
56674.698795180724,8178.422820013852,1.1121599887004765,0.06682032953850105,-1.403528890931601e-10
56963.85542168675,8118.3465147929965,1.114737888209066,0.06682032953830479,-1.4015662831745553e-10
57253.01204819277,8058.270209572135,1.1173144217688784,0.06682032953810152,-1.3995335648799863e-10
57542.1686746988,7998.193904351268,1.1198889399378,0.06682032953789417,-1.39746016006812e-10
57831.32530120482,7938.117599130396,1.1224621841821685,0.06682032953768093,-1.3953275472001082e-10
