Time,Concentration,Voltage
0.0,19986.0,0.7102940133310646
289.1566265060241,19895.112346983205,0.7104849021033508
578.3132530120482,19833.40760979663,0.7106038671602887
867.4698795180723,19773.16886402768,0.7107150811453851
1156.6265060240964,19713.076206451347,0.7108214996811683
1445.7831325301206,19652.99707557495,0.7109236552623647
1734.9397590361446,19592.92059512341,0.7110218061645688
2024.0963855421687,19532.84431231492,0.7111162156971634
2313.253012048193,19472.768085211133,0.7112070634395131
2602.409638554217,19412.691865060882,0.7112945434125996
2891.566265060241,19352.615596692558,0.7113789455299625
3180.7228915662654,19292.53929617545,0.7114601903031753
3469.879518072289,19232.4629859991,0.7115385828989469
3759.0361445783133,19172.38668374956,0.7116143619475246
4048.1927710843374,19112.310375319295,0.7116873360197952
4337.349397590362,19052.23406815742,0.7117579771582508
4626.506024096386,18992.157762066687,0.7118262728627521
4915.6626506024095,18932.081455357846,0.7118921160882633
5204.819277108434,18872.00514962567,0.711956048798847
5493.975903614458,18811.92884413786,0.7120178221313753
5783.132530120482,18751.852538857333,0.7120774893445116
6072.289156626506,18691.776233625733,0.7121353573036959
6361.445783132531,18631.699928452952,0.712191406829718
6650.6024096385545,18571.623623294578,0.7122457240020996
6939.759036144578,18511.54731810619,0.7122983949003623
7228.915662650603,18451.47101284336,0.712349505604028
7518.0722891566265,18391.39470767654,0.7123989822724957
7807.228915662651,18331.318402593337,0.7124468871439305
8096.385542168675,18271.242097511702,0.7124933343028299
8385.5421686747,18211.165792420416,0.7125383851227413
8674.698795180724,18151.089487308247,0.7125821009772111
8963.855421686747,18091.013182164395,0.7126245607795105
9253.012048192772,18030.936876980286,0.712665935586957
9542.168674698796,17970.860571743284,0.7127062281767834
9831.325301204819,17910.7842664424,0.7127455101752261
10120.481927710844,17850.70796106666,0.7127838532085217
10409.638554216868,17790.63165560508,0.7128213289029067
10698.795180722893,17730.555350224626,0.7128575997976425
10987.951807228916,17670.47904496274,0.7128926261901999
11277.10843373494,17610.402739751164,0.712926611373436
11566.265060240965,17550.326434602546,0.7129595726834499
11855.421686746988,17490.250129529515,0.7129915274563404
12144.578313253012,17430.173824523048,0.7130225534109613
12433.734939759037,17370.097519339095,0.713053383316541
12722.891566265062,17310.021214123644,0.7130836628336261
13012.048192771084,17249.94490886745,0.713113470276783
13301.204819277109,17189.86860356127,0.7131428839605778
13590.361445783134,17129.792298195858,0.7131719821995766
13879.518072289156,17069.715992850848,0.713200442557882
14168.674698795181,17009.639687562754,0.7132281368690788
14457.831325301206,16949.563382282755,0.7132553220433513
14746.98795180723,16889.487077014997,0.713282015978048
15036.144578313253,16829.41077176364,0.7133082365705163
15325.301204819278,16769.33446653227,0.713334006372329
15614.457831325302,16709.258161298436,0.7133595066063699
15903.614457831327,16649.181856074563,0.7133845944437192
16192.77108433735,16589.105550860662,0.7134092698843769
16481.927710843374,16529.029245656722,0.7134335329283431
16771.0843373494,16468.952940462754,0.7134573835756175
17060.240963855424,16408.876635262055,0.7134812353457308
17349.39759036145,16348.80033004597,0.7135053025460529
17638.55421686747,16288.724024828678,0.7135292341479708
17927.710843373494,16228.647719610173,0.7135530301514841
18216.86746987952,16168.57141439046,0.7135766905565932
18506.024096385543,16108.495109169537,0.713600215363298
18795.180722891568,16048.418803948707,0.7136243575003671
19084.337349397592,15988.342498727905,0.7136485263386356
19373.493975903617,15928.266193507103,0.7136726951769042
19662.650602409638,15868.1898882863,0.7136968640151728
19951.807228915663,15808.113583065498,0.7137210328534415
20240.963855421687,15748.037277844644,0.7137458741731438
20530.12048192771,15687.960972623718,0.7137716082729945
20819.277108433736,15627.884667402794,0.713797342372845
21108.43373493976,15567.808362181868,0.7138230764726956
21397.590361445786,15507.732056960944,0.7138500325159567
21686.746987951807,15447.655751740018,0.7138783369945058
21975.90361445783,15387.579446519092,0.7139066414730549
22265.060240963856,15327.503141298166,0.713934945951604
22554.21686746988,15267.426836077262,0.7139653682502415
22843.373493975905,15207.350530856384,0.7139977363959104
23132.53012048193,15147.274225635503,0.7140301045415792
23421.686746987954,15087.197920414623,0.7140624726872481
23710.843373493975,15027.121615193708,0.7141001031727398
24000.0,14967.045309972791,0.7141379395434221
24289.156626506025,14906.969004751874,0.7141757759141043
24578.31325301205,14846.892699531012,0.7142196125715035
24867.469879518074,14786.816394310154,0.7142639500991194
25156.6265060241,14726.740089089288,0.7143121112147027
25445.783132530123,14666.663783868411,0.7143646286674855
25734.939759036144,14606.587478647545,0.714420201016718
26024.09638554217,14546.51117342669,0.7144801289078705
26313.253012048193,14486.434868205843,0.7145463313836201
26602.409638554218,14426.358562984971,0.7146169353934196
26891.566265060243,14366.282257764029,0.7146942490956338
27180.722891566267,14306.205952543189,0.7147810010573005
27469.879518072292,14246.129647322312,0.7148754534296449
27759.036144578313,14186.05334210148,0.7149792582459144
28048.192771084337,14125.977036880671,0.7150939925194201
28337.349397590362,14065.900731659853,0.7152212264032005
28626.506024096387,14005.824426439003,0.7153611685836972
28915.66265060241,13945.748121218176,0.7155169112080396
29204.819277108436,13885.671815997357,0.7156937393788916
29493.97590361446,13825.59551077647,0.7158889009880398
29783.132530120485,13765.519205555607,0.7161066282078226
30072.289156626506,13705.44290033469,0.7163497648854372
30361.44578313253,13645.36659511382,0.716621058748511
30650.602409638555,13585.290289892948,0.7169233908428965
30939.75903614458,13525.21398467206,0.7172592703491287
31228.915662650605,13465.137679451194,0.7176342659645446
31518.07228915663,13405.06137423033,0.7180494095494043
31807.228915662654,13344.985069009424,0.7185098629295217
32096.385542168675,13284.908763788539,0.7190192862275542
32385.5421686747,13224.832458567671,0.7195794410088341
32674.698795180724,13164.7561533468,0.7201926300272837
32963.85542168675,13104.679848125857,0.7208628912230359
33253.01204819277,13044.603542904908,0.721590471634179
33542.1686746988,12984.52723768402,0.722376399584354
33831.32530120482,12924.450932463124,0.723219282604386
34120.48192771085,12864.374627242216,0.7241165430913244
34409.63855421687,12804.298322021294,0.725066005661356
34698.7951807229,12744.22201680045,0.7260608184641977
34987.951807228914,12684.145711579618,0.7270968614887775
35277.10843373494,12624.06940635874,0.7281652275141081
35566.26506024096,12563.993101137903,0.7292558179268623
35855.42168674699,12503.916795917037,0.7303605268050379
36144.57831325301,12443.84049069614,0.7314684071581442
36433.73493975904,12383.764185475271,0.732568648445094
36722.89156626506,12323.687880254385,0.7336523318905906
37012.048192771086,12263.61157503354,0.7347102962578393
37301.20481927711,12203.535269812643,0.7357338890254388
37590.361445783135,12143.458964591755,0.736715695211496
37879.51807228916,12083.382659370862,0.7376500477810893
38168.674698795185,12023.306354150014,0.7385334976339502
38457.83132530121,11963.230048929176,0.7393640055065962
38746.987951807234,11903.153743708326,0.7401399123657529
39036.14457831326,11843.077438487457,0.7408608294877839
39325.301204819276,11783.00113326662,0.741528464647346
39614.4578313253,11722.924828045803,0.7421442279247901
39903.614457831325,11662.848522824987,0.7427105330342675
40192.77108433735,11602.77221760417,0.743230722099984
40481.927710843374,11542.695912383351,0.743707874131751
40771.0843373494,11482.619607162525,0.7441454068292659
41060.24096385542,11422.5433019417,0.7445471406935545
41349.39759036145,11362.46699672088,0.7449157187098597
41638.55421686747,11302.390691500083,0.7452547917232778
41927.7108433735,11242.314386279297,0.7455675392946043
42216.86746987952,11182.238081058475,0.7458565274237093
42506.02409638555,11122.161775837612,0.7461248365233852
42795.18072289157,11062.085470616745,0.7463745190341657
43084.337349397596,11002.009165395888,0.7466077232775026
43373.49397590361,10941.932860175042,0.7468264968820221
43662.65060240964,10881.85655495418,0.7470326431635421
43951.80722891566,10821.780249733298,0.747227701146796
44240.96385542169,10761.703944512412,0.7474131192032138
44530.12048192771,10701.627639291526,0.7475901617204239
44819.27710843374,10641.551334070638,0.7477598424399937
45108.43373493976,10581.47502884976,0.747923012870164
45397.590361445786,10521.398723628892,0.7480803366867069
45686.74698795181,10461.322418408028,0.7482326188236675
45975.903614457835,10401.246113187157,0.7483805365517506
46265.06024096386,10341.16980796629,0.7485241971243177
46554.216867469884,10281.093502745425,0.7486637449349848
46843.37349397591,10221.01719752456,0.7487991662293778
47132.53012048193,10160.9408923037,0.7489319038053455
47421.68674698795,10100.864587082846,0.7490615410197502
47710.843373493975,10040.788281861993,0.7491879051014219
48000.0,9980.711976641142,0.7493108548447011
48289.156626506025,9920.635671420287,0.7494305138099339
48578.31325301205,9860.559366199426,0.7495479745968311
48867.469879518074,9800.483060978555,0.7496624804760366
49156.6265060241,9740.406755757673,0.7497739205472951
49445.78313253012,9680.330450536778,0.7498821258092339
49734.93975903615,9620.25414531589,0.7499867983062874
50024.09638554217,9560.177840095006,0.7500876834259567
50313.2530120482,9500.101534874124,0.7501844360756134
50602.40963855422,9440.02522965325,0.7502766556060163
50891.566265060246,9379.948924432372,0.7503650630146149
51180.72289156627,9319.872619211494,0.7504491520200305
51469.87951807229,9259.796313990615,0.7505286898987618
51759.03614457831,9199.720008769738,0.7506035123464837
52048.19277108434,9139.643703548865,0.7506734550588717
52337.34939759036,9079.567398327994,0.7507383537316011
52626.50602409639,9019.491093107126,0.7507980440603472
52915.66265060241,8959.414787886257,0.7508528011697975
53204.819277108436,8899.338482665382,0.7509023658917735
53493.97590361446,8839.262177444509,0.7509465095661224
53783.132530120485,8779.185872223634,0.7509851032289648
54072.28915662651,8719.109567002759,0.7510180179164215
54361.445783132534,8659.033261781884,0.751045124664613
54650.60240963856,8598.956956561007,0.7510662945096603
54939.759036144584,8538.880651340138,0.7510832473762279
55228.91566265061,8478.804346119277,0.7510960119526883
55518.072289156626,8418.728040898422,0.7511037636180106
55807.22891566265,8358.651735677571,0.7511065227223981
56096.385542168675,8298.575430456725,0.7511045615493712
56385.5421686747,8238.49912523587,0.7511023101815028
56674.698795180724,8178.422820015014,0.7510977409491619
56963.85542168675,8118.346514794153,0.75109127654398
57253.01204819277,8058.27020957329,0.7510833396575881
57542.1686746988,7998.193904352424,0.7510757238988002
57831.32530120482,7938.117599131558,0.7510701937360673
58120.48192771085,7878.041293910689,0.7510665133920441
58409.63855421687,7817.964988689817,0.7510654440513993
58698.7951807229,7757.888683468942,0.7510687790744693
58987.95180722892,7697.812378248066,0.7510792411134183
59277.108433734946,7637.736073027186,0.7510968374498121
59566.26506024097,7577.659767806304,0.7511227257040594
59855.42168674699,7517.583462585423,0.7511586987038229
60144.57831325301,7457.507157364541,0.7512081248508925
60433.73493975904,7397.430852143659,0.7512713654912214
60722.89156626506,7337.3545469227765,0.7513499590185648
61012.048192771086,7277.278241701893,0.7514456252943786
61301.20481927711,7217.201936481006,0.7515600520160661
61590.361445783135,7157.125631260115,0.7516947374636697
61879.51807228916,7097.049326039223,0.7518512737977854
62168.674698795185,7036.973020818333,0.7520318875000618
62457.83132530121,6976.896715597445,0.7522381388420123
62746.987951807234,6916.820410376558,0.7524716676806784
63036.14457831326,6856.744105155673,0.7527340859665079
63325.30120481928,6796.66779993478,0.7530263922423421
63614.45783132531,6736.591494713882,0.7533504982839982
63903.614457831325,6676.515189492978,0.7537079887261321
64192.77108433735,6616.438884272074,0.7540995288754957
64481.927710843374,6556.362579051176,0.7545253655143761
64771.0843373494,6496.286273830284,0.7549874378344302
65060.24096385542,6436.209968609397,0.7554869617581228
65349.39759036145,6376.13366338851,0.7560235117723823
65638.55421686747,6316.057358167625,0.7565975398045844
65927.7108433735,6255.981052946739,0.7572097707564104
66216.86746987952,6195.90474772585,0.7578604963241504
66506.02409638555,6135.828442504969,0.7585504643808682
66795.18072289157,6075.752137284091,0.7592796720120883
67084.3373493976,6015.675832063217,0.7600482460796932
67373.49397590362,5955.599526842347,0.7608559810923929
67662.65060240965,5895.523221621475,0.7617021167630347
67951.80722891567,5835.446916400606,0.7625864836849392
68240.9638554217,5775.370611179736,0.7635085052137925
68530.12048192772,5715.294305958863,0.7644670165772728
68819.27710843374,5655.21800073799,0.7654607963786342
69108.43373493977,5595.141695517113,0.7664887380721055
69397.5903614458,5535.065390296229,0.7675494050784349
69686.74698795182,5474.989085075348,0.768643374669275
69975.90361445783,5414.912779854469,0.769768935512
70265.06024096385,5354.836474633586,0.7709248701277308
70554.21686746988,5294.760169412701,0.7721099893568066
70843.3734939759,5234.683864191811,0.7733230559662505
71132.53012048193,5174.607558970919,0.7745627622569607
71421.68674698795,5114.53125375002,0.7758277479569338
71710.84337349398,5054.454948529121,0.7771161748530012
72000.0,4994.378643308234,0.7784260117472177
