Time,Concentration,Voltage
0.0,19986.0,0.24131640462732268
144.57831325301206,19929.14364148615,0.24124349315114124
289.1566265060241,19895.13516501377,0.2412010597353033
433.73493975903614,19863.850812121327,0.24116158550537545
578.3132530120482,19833.401879355864,0.24112277933762896
722.8915662650603,19803.239902605448,0.24108398692350472
867.4698795180723,19773.165035429087,0.24104498390408208
1012.0481927710844,19743.11080838394,0.241005712281504
1156.6265060240964,19713.0714819471,0.24096619248983478
1301.2048192771085,19683.031893057643,0.2409264311430281
1445.7831325301206,19652.993549650204,0.2408863697639968
1590.3614457831327,19622.956140757535,0.24084595170248843
1734.9397590361446,19592.918731864866,0.2408055336409801
1879.5180722891566,19562.881322972196,0.24076511557947175
2024.0963855421687,19532.843855015057,0.24072463947962755
2168.674698795181,19502.80577493523,0.24068356189157547
2313.253012048193,19472.7676948554,0.2406424843035234
2457.8313253012047,19442.729614775573,0.2406014067154713
2602.409638554217,19412.691534695743,0.24056032912741923
2746.987951807229,19382.653454615916,0.24051925153936715
2891.566265060241,19352.615374536086,0.24047817395131507
3036.144578313253,19322.577294456256,0.240437096363263
3180.7228915662654,19292.53921437643,0.2403960187752109
3325.3012048192772,19262.501075625267,0.24035481238617856
3469.879518072289,19232.46293006404,0.24031359104703243
3614.4578313253014,19202.424784502815,0.2402723697078863
3759.0361445783133,19172.38663894159,0.24023114836874018
3903.6144578313256,19142.34849338036,0.24018992702959405
4048.1927710843374,19112.310347819133,0.2401487056904479
4192.77108433735,19082.272202257907,0.2401074843513018
4337.349397590362,19052.234056696678,0.24006626301215567
4481.9277108433735,19022.19590642594,0.24002567667283706
4626.506024096386,18992.15775417506,0.23998535732208232
4771.084337349398,18962.11960192418,0.23994503797132757
4915.6626506024095,18932.0814496733,0.2399047186205728
5060.240963855422,18902.04329742242,0.23986439926981806
5204.819277108434,18872.00514517154,0.23982407991906332
5349.397590361446,18841.96699292066,0.23978376056830855
5493.975903614458,18811.92884066978,0.2397434412175538
5638.55421686747,18781.890688418902,0.23970312186679907
5783.132530120482,18751.852536168022,0.2396628025160443
5927.710843373494,18721.814383917146,0.23962248316528956
6072.289156626506,18691.776231666267,0.2395821638145348
6216.8674698795185,18661.738079415387,0.23954184446378005
6361.445783132531,18631.699927164507,0.2395015251130253
6506.024096385542,18601.661774913628,0.23946120576227053
6650.6024096385545,18571.623622662748,0.2394208864115158
6795.180722891567,18541.58547030355,0.2393812479343429
6939.759036144578,18511.547317714187,0.23934305631353148
7084.3373493975905,18481.50916512482,0.23930486469272003
7228.915662650603,18451.47101253545,0.23926667307190858
7373.493975903615,18421.432859946086,0.23922848145109715
7518.0722891566265,18391.394707356718,0.2391902898302857
7662.650602409639,18361.35655476735,0.23915209820947425
7807.228915662651,18331.318402177985,0.23911390658866283
7951.8072289156635,18301.280249588617,0.23907571496785138
8096.385542168675,18271.24209699925,0.23903752334703993
8240.963855421687,18241.203944409885,0.23899933172622848
8385.5421686747,18211.165791820516,0.23896114010541705
8530.120481927712,18181.12763923115,0.2389229484846056
8674.698795180724,18151.089486641784,0.23888475686379415
8819.277108433735,18121.051334052416,0.23884656524298273
8963.855421686747,18091.013181451497,0.2388097228133331
9108.43373493976,18060.975028842015,0.23877388006292877
9253.012048192772,18030.936876232536,0.2387380373125244
9397.590361445784,18000.898723623057,0.23870219456212005
9542.168674698796,17970.860571013574,0.23866635181171572
9686.746987951808,17940.822418404096,0.23863050906131136
9831.325301204819,17910.784265794617,0.238594666310907
9975.903614457831,17880.746113185134,0.23855882356050268
10120.481927710844,17850.707960575655,0.23852298081009832
10265.060240963856,17820.669807966173,0.238487138059694
10409.638554216868,17790.631655356694,0.23845129530928963
10554.21686746988,17760.593502747215,0.23841545255888527
10698.795180722893,17730.55535013667,0.23838149372483342
10843.373493975903,17700.517197525893,0.23834795538711276
10987.951807228916,17670.47904491511,0.23831441704939207
11132.530120481928,17640.44089230433,0.23828087871167142
11277.10843373494,17610.40273969355,0.23824734037395076
11421.686746987953,17580.36458708277,0.23821380203623008
11566.265060240965,17550.32643447199,0.23818026369850942
11710.843373493977,17520.28828186121,0.23814672536078874
11855.421686746988,17490.25012925043,0.23811318702306808
12000.0,17460.21197663965,0.2380796486853474
12144.578313253012,17430.173824028996,0.23804732036739876
12289.156626506025,17400.135671418466,0.23801619495725226
12433.734939759037,17370.097518807936,0.23798506954710577
12578.31325301205,17340.05936619741,0.23795394413695925
12722.891566265062,17310.02121358688,0.23792281872681276
12867.469879518072,17279.98306097635,0.23789169331666626
13012.048192771084,17249.944908365822,0.23786056790651977
13156.626506024097,17219.90675575529,0.23782944249637325
13301.204819277109,17189.86860314476,0.23779831708622676
13445.783132530121,17159.83045053425,0.23776763519340952
13590.361445783134,17129.792297923792,0.23773855338731237
13734.939759036146,17099.754145313338,0.23770947158121522
13879.518072289156,17069.715992702884,0.23768038977511807
14024.096385542169,17039.67784009243,0.23765130796902093
14168.674698795181,17009.639687481973,0.23762222616292375
14313.253012048193,16979.60153487152,0.2375931443568266
14457.831325301206,16949.563382261065,0.23756406255072945
14602.409638554218,16919.525229650608,0.2375349807446323
14746.98795180723,16889.487077040176,0.23750771182332714
14891.566265060243,16859.44892442975,0.23748073551330015
15036.144578313253,16829.410771819323,0.2374537592032732
15180.722891566265,16799.372619208894,0.23742678289324623
15325.301204819278,16769.33446659847,0.23739980658321927
15469.87951807229,16739.29631398804,0.2373728302731923
15614.457831325302,16709.258161377613,0.23734585396316532
15759.036144578315,16679.220008767188,0.23731887765313836
15903.614457831327,16649.181856156756,0.23729313256648735
16048.192771084337,16619.14370354632,0.23726859421151392
16192.77108433735,16589.105550935885,0.2372440558565405
16337.349397590362,16559.06739832545,0.23721951750156708
16481.927710843374,16529.029245715014,0.23719497914659365
16626.506024096387,16498.991093104578,0.23717044079162022
16771.0843373494,16468.952940494142,0.23714590243664682
16915.66265060241,16438.914787883707,0.2371213640816734
17060.240963855424,16408.87663527327,0.23709702593179027
17204.819277108436,16378.838482662832,0.23707401254742486
17349.39759036145,16348.800330052396,0.23705131508675129
17493.975903614457,16318.762177441959,0.2370289335497695
17638.55421686747,16288.724024831521,0.23700686793647952
17783.13253012048,16258.685872221084,0.23698511824688134
17927.710843373494,16228.647719610646,0.23696368448097502
18072.289156626506,16198.609567000207,0.23694256663876048
18216.86746987952,16168.571414389768,0.23692176472023774
18361.44578313253,16138.533261779328,0.23690127872540684
18506.024096385543,16108.495109168889,0.23688110865426776
18650.602409638555,16078.45695655845,0.23686125450682044
18795.180722891568,16048.41880394801,0.23684171628306497
18939.75903614458,16018.38065133757,0.2368224939830013
19084.337349397592,15988.34249872713,0.23680358760662945
19228.915662650605,15958.304346116689,0.2367849971539494
19373.493975903617,15928.266193506248,0.23676672262496115
19518.07228915663,15898.228040895818,0.2367489746760527
19662.650602409638,15868.189888285404,0.23673185441931613
19807.22891566265,15838.15173567499,0.23671510630318757
19951.807228915663,15808.11358306458,0.23669873032766695
20096.385542168675,15778.075430454172,0.2366827264927543
20240.963855421687,15748.037277843765,0.2366670947984496
20385.5421686747,15717.999125233362,0.23665183524475294
20530.12048192771,15687.960972622961,0.23663694783166422
20674.698795180724,15657.922820012564,0.23662243255918347
20819.277108433736,15627.884667402168,0.2366082894273107
20963.85542168675,15597.846514791774,0.23659451843604593
21108.43373493976,15567.808362181384,0.23658111958538908
21253.012048192773,15537.770209570994,0.23656809287534022
21397.590361445786,15507.732056960609,0.23655543830589934
21542.168674698798,15477.693904350224,0.23654315587706648
21686.746987951807,15447.655751739845,0.23653124558884153
21831.32530120482,15417.617599129468,0.23651970744122458
21975.90361445783,15387.57944651907,0.23650951063500147
22120.481927710844,15357.541293908662,0.23650018582117813
22265.060240963856,15327.503141298253,0.23649138647749918
22409.63855421687,15297.464988687843,0.23648311260396462
22554.21686746988,15267.426836077431,0.2364753642005745
22698.795180722893,15237.38868346702,0.23646814126732874
22843.373493975905,15207.350530856607,0.2364614438042274
22987.951807228917,15177.31237824619,0.23645527181127046
23132.53012048193,15147.274225635774,0.23644962528845792
23277.108433734942,15117.236073025359,0.2364445042357898
23421.686746987954,15087.197920414941,0.23643990865326606
23566.265060240967,15057.159767804522,0.23643583854088676
23710.843373493975,15027.121615194103,0.2364322938986518
23855.421686746988,14997.083462583681,0.2364292747265613
24000.0,14967.045309973259,0.2364267810246152
24144.578313253012,14937.007157362836,0.23642481279281347
24289.156626506025,14906.96900475241,0.23642339785278307
24433.734939759037,14876.930852141983,0.23642474876187353
24578.31325301205,14846.892699531556,0.23642688088559105
24722.89156626506,14816.854546921124,0.23642979422393576
24867.469879518074,14786.816394310694,0.23643348877690754
25012.048192771086,14756.77824170026,0.23643796454450644
25156.6265060241,14726.740089089828,0.2364432215267325
25301.20481927711,14696.701936479392,0.23644925972358566
25445.783132530123,14666.663783868957,0.23645607913506594
25590.361445783135,14636.62563125852,0.23646367976117336
25734.939759036144,14606.587478648082,0.23647277544163164
25879.518072289156,14576.549326037642,0.236485801779687
26024.09638554217,14546.511173427203,0.2365002979709615
26168.67469879518,14516.473020816762,0.23651626401545514
26313.253012048193,14486.434868206321,0.23653369991316792
26457.831325301206,14456.396715595878,0.23655260566409986
26602.409638554218,14426.358562985433,0.2365729812682509
26746.98795180723,14396.320410374987,0.23659482672562107
26891.566265060243,14366.282257764542,0.2366181420362104
27036.144578313255,14336.244105154095,0.2366429272000189
27180.722891566267,14306.205952543654,0.23667096886989203
27325.30120481928,14276.167799933226,0.23670375968019844
27469.879518072292,14246.1296473228,0.23673889316915034
27614.457831325304,14216.091494712377,0.23677636933674778
27759.036144578313,14186.053342101955,0.23681618818299074
27903.614457831325,14156.015189491534,0.2368583497078792
28048.192771084337,14125.977036881119,0.2369028539114132
28192.77108433735,14095.938884270705,0.23694970079359268
28337.349397590362,14065.900731660284,0.2370014743082997
28481.927710843374,14035.862579049855,0.2370591477814236
28626.506024096387,14005.824426439427,0.23712040499345768
28771.0843373494,13975.786273828995,0.23718524594440188
28915.66265060241,13945.748121218563,0.23725367063425626
29060.240963855424,13915.70996860813,0.23732567906302077
29204.819277108436,13885.671815997694,0.23740127123069546
29349.39759036145,13855.63366338725,0.23748564517853146
29493.97590361446,13825.595510776804,0.23757615146717365
29638.554216867473,13795.557358166356,0.23767190191139076
29783.132530120485,13765.519205555904,0.23777289651118277
29927.710843373494,13735.48105294545,0.23787913526654977
30072.289156626506,13705.442900334994,0.2379914167947276
30216.86746987952,13675.40474772456,0.23811471460042874
30361.44578313253,13645.366595114132,0.23824513910652478
30506.024096385543,13615.32844250371,0.23838269031301573
30650.602409638555,13585.290289893292,0.23852736821990156
30795.180722891568,13555.252137282874,0.23868078742998192
30939.75903614458,13525.21398467245,0.2388467202055393
31084.337349397592,13495.175832062021,0.23902195616274835
31228.915662650605,13465.137679451595,0.239206495301609
31373.493975903617,13435.099526841164,0.23940033762212137
31518.07228915663,13405.061374230741,0.23960716523021325
31662.65060240964,13375.02322162032,0.23982508480774878
31807.228915662654,13344.985069009903,0.24005382612920828
31951.807228915663,13314.946916399485,0.24029338919459178
32096.385542168675,13284.908763789068,0.2405480299923179
32240.963855421687,13254.870611178654,0.2408153132946786
32385.5421686747,13224.832458568242,0.24109517976635816
32530.12048192771,13194.794305957828,0.24138777411820203
32674.698795180724,13164.756153347402,0.24169656909453083
32819.27710843374,13134.718000736966,0.24201944271739934
32963.85542168675,13104.679848126527,0.24235639498680764
33108.43373493976,13074.641695516082,0.24270755973761968
33253.01204819277,13044.603542905632,0.24307416141525442
33397.590361445786,13014.565390295174,0.24345541974536497
33542.1686746988,12984.527237684713,0.24385133472795137
33686.74698795181,12954.489085074252,0.24426176008621112
33831.32530120482,12924.450932463813,0.24468594363936008
33975.903614457835,12894.412779853383,0.2451243892004046
34120.48192771085,12864.374627242962,0.24557709676934458
34265.06024096386,12834.33647463254,0.2460432164607668
34409.63855421687,12804.298322022105,0.24651996285542863
34554.216867469884,12774.260169411666,0.24700931807958765
34698.7951807229,12744.222016801225,0.24751128213324386
34843.37349397591,12714.183864190782,0.24802438688649198
34987.951807228914,12684.145711580337,0.2485444715261849
35132.530120481926,12654.10755896989,0.24907289739110475
35277.10843373494,12624.069406359444,0.24960885097926527
35421.68674698795,12594.031253748995,0.2501510732986578
35566.26506024096,12563.993101138545,0.25069784206252504
35710.843373493975,12533.954948528095,0.2512486403564893
35855.42168674699,12503.916795917645,0.2518024555567038
36000.0,12473.878643307198,0.25235518781087407
