Time,Concentration,Voltage
0.0,30730.0,3.9630968416209438
289.1566265060241,30839.082525104786,3.960558898505276
578.3132530120482,30913.092703578797,3.9588789799609105
867.4698795180723,30985.40143241172,3.9572326752381564
1156.6265060240964,31057.519834724782,3.955586896721517
1445.7831325301206,31129.6099571579,3.9539390516906048
1734.9397590361446,31201.69781850028,3.9522907003842453
2024.0963855421687,31273.787732590725,3.9506432114845973
2313.253012048193,31345.87858453343,3.9489961165982717
2602.409638554217,31417.96997455401,3.947357588623273
2891.566265060241,31490.06146463461,3.945720653736149
3180.7228915662654,31562.152954715217,3.9440837188490248
3469.879518072289,31634.244456068725,3.942453658617116
3759.0361445783133,31706.336018042883,3.9408605671943717
4048.1927710843374,31778.427580017036,3.9392674757716275
4337.349397590362,31850.519141991193,3.9376743843488833
4626.506024096386,31922.610703965347,3.9360812929261395
4915.6626506024095,31994.702265939504,3.9344882015033953
5204.819277108434,32066.793827913658,3.932895110080651
5493.975903614458,32138.885389887815,3.931302018657907
5783.132530120482,32210.97695490599,3.9297669716756674
6072.289156626506,32283.06852076282,3.9282479165290765
6361.445783132531,32355.16008661965,3.926728861382486
6650.6024096385545,32427.25165247648,3.9252098062358955
6939.759036144578,32499.34321833331,3.923690751089305
7228.915662650603,32571.43478440346,3.922206647928973
7518.0722891566265,32643.52635072802,3.92076423001019
7807.228915662651,32715.617917052583,3.9193218120914075
8096.385542168675,32787.70948337715,3.917879394172625
8385.5421686747,32859.801049698064,3.9164413094691204
8674.698795180724,32931.892615969555,3.9150619897514636
8963.855421686747,33003.984182241045,3.913682670033807
9253.012048192772,33076.075748512536,3.9123033503161504
9542.168674698796,33148.16731478232,3.910941844298441
9831.325301204819,33220.258881048125,3.90962172775638
10120.481927710844,33292.35044731393,3.9083016112143185
10409.638554216868,33364.44201357974,3.9069814946722574
10698.795180722893,33436.53357984512,3.9056979592896175
10987.951807228916,33508.62514611011,3.9044464614440684
11277.10843373494,33580.716712375106,3.9031949635985197
11566.265060240965,33652.8082786401,3.9019434657529706
11855.421686746988,33724.89984490512,3.900722884262688
12144.578313253012,33796.991411170166,3.899527514351808
12433.734939759037,33869.08297743524,3.8983499672678876
12722.891566265062,33941.17454370033,3.8971902430109258
13012.048192771084,34013.26610996543,3.896048341580923
13301.204819277109,34085.357676230546,3.894924262977879
13590.361445783134,34157.44924249569,3.8938180072017943
13879.518072289156,34229.54080876083,3.892728105802836
14168.674698795181,34301.6323750259,3.8916500922382933
14457.831325301206,34373.72394129098,3.8905882553919198
14746.98795180723,34445.81550755605,3.8895425952637153
15036.144578313253,34517.90707382112,3.8885131118536793
15325.301204819278,34589.99864008619,3.8874998051618124
15614.457831325302,34662.090206351255,3.886502675188115
15903.614457831327,34734.18177261631,3.8855217219325864
16192.77108433735,34806.27333888137,3.8845569453952264
16481.927710843374,34878.36490514643,3.8836083455760355
16771.0843373494,34950.45647141148,3.8826759224750136
17060.240963855424,35022.54803767655,3.8817553305962487
17349.39759036145,35094.63960394163,3.8808485075131998
17638.55421686747,35166.7311702067,3.879956820006586
17927.710843373494,35238.82273647179,3.879080268076408
18216.86746987952,35310.91430273687,3.8782188517226652
18506.024096385543,35383.00586900196,3.8773725709453584
18795.180722891568,35455.097435267046,3.8765414257444872
19084.337349397592,35527.18900153213,3.8757254161200514
19373.493975903617,35599.28056779723,3.8749245420720513
19662.650602409638,35671.37213406232,3.874138803600486
19951.807228915663,35743.46370032742,3.8733653360198237
20240.963855421687,35815.55526659251,3.8725974144276583
20530.12048192771,35887.64683285761,3.8718425527463745
20819.277108433736,35959.7383991227,3.8711007509759727
21108.43373493976,36031.8299653878,3.8703720091164526
21397.590361445786,36103.9215316529,3.869656327167815
21686.746987951807,36176.013097918,3.8689537051300587
21975.90361445783,36248.10466418311,3.868264143003184
22265.060240963856,36320.196230448215,3.8675876407871916
22554.21686746988,36392.287796713324,3.8669241984820806
22843.373493975905,36464.379362978434,3.866273816087852
23132.53012048193,36536.470929243565,3.865626506354444
23421.686746987954,36608.56249550872,3.864987243278438
23710.843373493975,36680.65406177387,3.8643587372042707
24000.0,36752.74562803904,3.863740988131943
24289.156626506025,36824.837194304215,3.8631339960614537
24578.31325301205,36896.9287605694,3.862537760992804
24867.469879518074,36969.02032683459,3.861952282925994
25156.6265060241,37041.11189309978,3.8613775618610218
25445.783132530123,37113.20345936498,3.8608135977978892
25734.939759036144,37185.29502563019,3.8602603907365958
26024.09638554217,37257.3865918954,3.859715923450323
26313.253012048193,37329.47815816059,3.8591758145890256
26602.409638554218,37401.56972442579,3.85864427245315
26891.566265060243,37473.66129069098,3.858121110961033
27180.722891566267,37545.75285695618,3.8576061440310103
27469.879518072292,37617.844423221366,3.857099185581419
27759.036144578313,37689.93598948654,3.8566000495305928
28048.192771084337,37762.027555751716,3.8561085497968692
28337.349397590362,37834.11912201689,3.855624500298584
28626.506024096387,37906.21068828206,3.8551477149540725
28915.66265060241,37978.30225454721,3.854678007681671
29204.819277108436,38050.39382081237,3.854215192399716
29493.97590361446,38122.48538707751,3.8537590830265427
29783.132530120485,38194.57695334264,3.853309493480487
30072.289156626506,38266.66851960777,3.8528662376798852
30361.44578313253,38338.760085872884,3.852429129543073
30650.602409638555,38410.851652137986,3.8519979829883866
30939.75903614458,38482.943218403074,3.8515726119341616
31228.915662650605,38555.03478466817,3.8511528302987346
31518.07228915663,38627.12635093323,3.8507384520004404
31807.228915662654,38699.21791719827,3.850329290957616
32096.385542168675,38771.309483463345,3.8499270109265504
32385.5421686747,38843.40104972846,3.849534292051574
32674.698795180724,38915.4926159936,3.8491472229498904
32963.85542168675,38987.584182258724,3.848765670271892
33253.01204819277,39059.675748523856,3.848389500667973
33542.1686746988,39131.76731478899,3.8480185807885254
33831.32530120482,39203.85888105411,3.8476527772839426
34120.48192771085,39275.95044731926,3.8472919568046167
34409.63855421687,39348.04201358438,3.846935986000942
34698.7951807229,39420.13357984952,3.8465847315233095
34987.951807228914,39492.225146114644,3.8462380600221135
35277.10843373494,39564.31671237978,3.845895838147746
35566.26506024096,39636.408278644914,3.8455579325506006
35855.42168674699,39708.49984491005,3.84522420988107
36144.57831325301,39780.5914111752,3.8448945367895466
36433.73493975904,39852.68297744034,3.844568779926424
36722.89156626506,39924.774543705484,3.8442468059420944
37012.048192771086,39996.86610997063,3.8439284814869508
37301.20481927711,40068.957676235776,3.8436136732113866
37590.361445783135,40141.04924250092,3.8433023991776905
37879.51807228916,40213.14080876605,3.842994609574044
38168.674698795185,40285.23237503119,3.842689992412429
38457.83132530121,40357.32394129632,3.842388417023406
38746.987951807234,40429.41550756145,3.8420897527375355
39036.14457831326,40501.50707382658,3.841793868885376
39325.301204819276,40573.59864009171,3.841500634797488
39614.4578313253,40645.69020635684,3.841209919804432
39903.614457831325,40717.78177262197,3.8409215932367675
40192.77108433735,40789.873338887104,3.8406355244250543
40481.927710843374,40861.964905152236,3.8403515826998524
40771.0843373494,40934.05647141737,3.840069637391722
41060.24096385542,41006.1480376825,3.8397895578312227
41349.39759036145,41078.23960394763,3.839511213348915
41638.55421686747,41150.331170212754,3.8392344732753583
41927.7108433735,41222.42273647788,3.838959206941113
42216.86746987952,41294.51430274301,3.8386852836767384
42506.02409638555,41366.60586900814,3.8384142515754354
42795.18072289157,41438.69743527326,3.8381468413869153
43084.337349397596,41510.78900153838,3.8378810597190745
43373.49397590361,41582.88056780349,3.837616811436835
43662.65060240964,41654.972134068616,3.837354001405118
43951.80722891566,41727.06370033373,3.8370925344888445
44240.96385542169,41799.15526659886,3.8368323155529347
44530.12048192771,41871.24683286396,3.8365732494623104
44819.27710843374,41943.338399129076,3.8363152410818926
45108.43373493976,42015.429965394185,3.8360581952766024
45397.590361445786,42087.521531659295,3.835802016911361
45686.74698795181,42159.6130979244,3.835546610851089
45975.903614457835,42231.7046641895,3.8352918819607087
46265.06024096386,42303.79623045461,3.8350377351051397
46554.216867469884,42375.887796719704,3.8347840751493045
46843.37349397591,42447.979362984806,3.8345308069581225
47132.53012048193,42520.07092924991,3.834277835396516
47421.68674698795,42592.162495515,3.834025065329407
47710.843373493975,42664.25406178009,3.8337724016217143
48000.0,42736.34562804519,3.83351974913836
48289.156626506025,42808.43719431028,3.8332671984578854
48578.31325301205,42880.52876057541,3.8330160856610713
48867.469879518074,42952.620326840544,3.8327649633287066
49156.6265060241,43024.71189310568,3.8325137493420662
49445.78313253012,43096.80345937082,3.8322623615824245
49734.93975903615,43168.895025635975,3.832010717931055
50024.09638554217,43240.98659190112,3.8317587362692316
50313.2530120482,43313.07815816628,3.8315063344782287
50602.40963855422,43385.16972443144,3.8312534304393204
50891.566265060246,43457.26129069661,3.830999942033781
51180.72289156627,43529.35285696178,3.830745787142884
51469.87951807229,43601.44442322696,3.8304908836479044
51759.03614457831,43673.53598949214,3.830235149430115
52048.19277108434,43745.62755575734,3.8299785023707913
52337.34939759036,43817.71912202253,3.8297208603512054
52626.50602409639,43889.81068828774,3.829462141252634
52915.66265060241,43961.90225455296,3.829202262956349
53204.819277108436,44033.99382081818,3.8289411433436253
53493.97590361446,44106.08538708341,3.828678700295737
53783.132530120485,44178.17695334865,3.8284148516939585
54072.28915662651,44250.26851961389,3.8281495154195637
54361.445783132534,44322.3600858791,3.827877989399296
54650.60240963856,44394.45165214431,3.8276027093909173
54939.759036144584,44466.543218409504,3.8273247926260914
55228.91566265061,44538.63478467471,3.827044116160548
55518.072289156626,44610.726350939905,3.8267605570500183
55807.22891566265,44682.81791720512,3.8264739923502313
56096.385542168675,44754.909483470314,3.826184299116919
56385.5421686747,44827.00104973551,3.82589135440581
56674.698795180724,44899.092616000715,3.8255950352726362
56963.85542168675,44971.184182265926,3.8252952187731264
57253.01204819277,45043.27574853112,3.824991781963012
57542.1686746988,45115.36731479632,3.824684601898024
57831.32530120482,45187.458881061524,3.8243735556338914
58120.48192771085,45259.55044732672,3.824058520226344
58409.63855421687,45331.64201359192,3.8237393727311146
58698.7951807229,45403.73357985712,3.823415990203931
58987.95180722892,45475.82514612231,3.8230882497005254
59277.108433734946,45547.9167123875,3.8227560282766273
59566.26506024097,45620.0082786527,3.8224192029879664
59855.42168674699,45692.09984491789,3.8220776508902743
60144.57831325301,45764.19141118304,3.821704699226645
60433.73493975904,45836.28297744815,3.8212865945908376
60722.89156626506,45908.37454371325,3.820854165273623
61012.048192771086,45980.46610997835,3.8204068645126124
61301.20481927711,46052.557676243414,3.8199441455454184
61590.361445783135,46124.649242508465,3.819465461609652
61879.51807228916,46196.74080877351,3.818970265942925
62168.674698795185,46268.83237503853,3.818458011782851
62457.83132530121,46340.92394130354,3.817928152367039
62746.987951807234,46413.01550756853,3.817350996328071
63036.14457831326,46485.10707383352,3.816672635772243
63325.30120481928,46557.19864009849,3.8159465785291498
63614.45783132531,46629.29020636343,3.8151702707460826
63903.614457831325,46701.381772628374,3.8143411585703344
64192.77108433735,46773.473338893295,3.813456688149197
64481.927710843374,46845.5649051582,3.812514305629963
64771.0843373494,46917.65647142317,3.8113890334905056
65060.24096385542,46989.74803768818,3.8101263541912136
65349.39759036145,47061.83960395322,3.808732717729888
65638.55421686747,47133.93117021829,3.8071984660211915
65927.7108433735,47206.02273648338,3.8054705900281136
66216.86746987952,47278.114302748465,3.8034796591986475
66506.02409638555,47350.20586901356,3.801246911536861
66795.18072289157,47422.29743527867,3.7987516327907556
67084.3373493976,47494.389001543794,3.7959731087083357
67373.49397590362,47566.48056780897,3.792721647620644
67662.65060240965,47638.572134074166,3.789041684578874
67951.80722891567,47710.663700339406,3.784872540363083
68240.9638554217,47782.7552666047,3.7800317326615445
68530.12048192772,47854.84683287005,3.774502550127026
68819.27710843374,47926.93839913541,3.768172139719994
69108.43373493977,47999.029965400754,3.7608603784534176
69397.5903614458,48071.12153166607,3.752501107298531
69686.74698795182,48143.21309793136,3.7428721630713904
69975.90361445783,48215.304664196614,3.7318350330399173
70265.06024096385,48287.396230461854,3.719164238163175
70554.21686746988,48359.48779672707,3.704584956820683
70843.3734939759,48431.57936299231,3.6878755879389264
71132.53012048193,48503.67092925762,3.668613845834298
71421.68674698795,48575.762495522984,3.6465421895566275
71710.84337349398,48647.854061788275,3.6212420003907
72000.0,48719.94562805361,3.5923273826374897
