Time,Concentration,Voltage
0.0,30730.0,4.018422158579217
289.1566265060241,30839.06005438366,4.015917110211544
578.3132530120482,30913.104826057497,4.014258135909837
867.4698795180723,30985.396413765542,4.012633737571248
1156.6265060240964,31057.509413146647,4.011009848381199
1445.7831325301206,31129.603936397783,4.009384292350341
1734.9397590361446,31201.694859015017,4.007758126570804
2024.0963855421687,31273.786377073586,4.006132647408866
2313.253012048193,31345.878060044277,4.004510378396359
2602.409638554217,31417.96969030297,4.002888886099728
2891.566265060241,31490.061274161475,4.001274733406019
3180.7228915662654,31562.15285196971,3.999661591315755
3469.879518072289,31634.244420390096,3.998060446452905
3759.0361445783133,31706.335988695828,3.9964603222871093
4048.1927710843374,31778.427555680908,3.9948719554833043
4337.349397590362,31850.519121915837,3.993292122248601
4626.506024096386,31922.6106881508,3.9917224752691665
4915.6626506024095,31994.702254245763,3.990163360353982
5204.819277108434,32066.79382052358,3.988617070717195
5493.975903614458,32138.885386854847,3.98708268723672
5783.132530120482,32210.97695323957,3.9855602099125584
6072.289156626506,32283.068519587756,3.9840515946240176
6361.445783132531,32355.160085875366,3.982557363718572
6650.6024096385545,32427.251652148047,3.9810765251649882
6939.759036144578,32499.343218410097,3.9796097725585557
7228.915662650603,32571.43478467924,3.9781599675037618
7518.0722891566265,32643.526350944372,3.9767253172045427
7807.228915662651,32715.617917205494,3.975305821660898
8096.385542168675,32787.709483468505,3.973902907549164
8385.5421686747,32859.80104973177,3.9725161764963994
8674.698795180724,32931.892615994366,3.9711454114673073
8963.855421686747,33003.9841822572,3.969791512048055
9253.012048192772,33076.075748521194,3.9684554395091927
9542.168674698796,33148.16731478556,3.9671363780590436
9831.325301204819,33220.258881050286,3.965834350216936
10120.481927710844,33292.35044731506,3.9645498390582428
10409.638554216868,33364.44201357996,3.963282735222916
10698.795180722893,33436.53357984492,3.9620331277712477
10987.951807228916,33508.625146109895,3.9608011057635313
11277.10843373494,33580.71671237483,3.959586758260058
11566.265060240965,33652.80827863965,3.9583901743211216
11855.421686746988,33724.899844904496,3.957211219854766
12144.578313253012,33796.99141116971,3.9560494280214096
12433.734939759037,33869.08297743497,3.9549052404242193
12722.891566265062,33941.17454370027,3.953778684632583
13012.048192771084,34013.2661099656,3.9526697882158888
13301.204819277109,34085.35767623096,3.9515785787435256
13590.361445783134,34157.4492424963,3.9505043988844184
13879.518072289156,34229.54080876161,3.9494470096977734
14168.674698795181,34301.632375026886,3.9484067342099904
14457.831325301206,34373.72394129212,3.9473835142145832
14746.98795180723,34445.815507557294,3.946377291505067
15036.144578313253,34517.907073822396,3.945388007874956
15325.301204819278,34589.99864008754,3.944414617427094
15614.457831325302,34662.09020635266,3.9434573808308446
15903.614457831327,34734.181772617754,3.9425162705941714
16192.77108433735,34806.27333888281,3.9415911443567593
16481.927710843374,34878.36490514784,3.9406818597582904
16771.0843373494,34950.45647141283,3.9397882431057822
17060.240963855424,35022.54803767789,3.938909953564603
17349.39759036145,35094.639603942946,3.9380469581116944
17638.55421686747,35166.73117020801,3.9371990968514092
17927.710843373494,35238.8227364731,3.9363662098881034
18216.86746987952,35310.9143027382,3.9355481373261307
18506.024096385543,35383.005869003304,3.934744622570006
18795.180722891568,35455.09743526838,3.933955400232008
19084.337349397592,35527.18900153346,3.933180385001924
19373.493975903617,35599.28056779853,3.932419399156205
19662.650602409638,35671.372134063604,3.9316722649713003
19951.807228915663,35743.46370032868,3.9309388047236595
20240.963855421687,35815.55526659375,3.9302188406897343
20530.12048192771,35887.64683285882,3.9295121951459735
20819.277108433736,35959.73839912388,3.9288186903688276
21108.43373493976,36031.82996538895,3.928138148634746
21397.590361445786,36103.921531654014,3.92747039222018
21686.746987951807,36176.01309791907,3.926815230689084
21975.90361445783,36248.10466418414,3.926171792244583
22265.060240963856,36320.19623044922,3.925540405111412
22554.21686746988,36392.28779671429,3.9249208725132263
22843.373493975905,36464.37936297937,3.924312997673683
23132.53012048193,36536.47092924445,3.9237165838164363
23421.686746987954,36608.56249550953,3.9231314341651427
23710.843373493975,36680.65406177462,3.9225573519434573
24000.0,36752.74562803971,3.921994140375037
24289.156626506025,36824.837194304804,3.921441602683537
24578.31325301205,36896.92876056989,3.9208995420926116
24867.469879518074,36969.020326834994,3.920367761825919
25156.6265060241,37041.111893100075,3.919846265994198
25445.783132530123,37113.203459365126,3.9193348630176694
25734.939759036144,37185.29502563018,3.918833243545882
26024.09638554217,37257.38659189522,3.918341217984272
26313.253012048193,37329.47815816026,3.9178585967382737
26602.409638554218,37401.56972442529,3.9173851902133228
26891.566265060243,37473.6612906903,3.9169208088148544
27180.722891566267,37545.75285695532,3.916465262948303
27469.879518072292,37617.84442322031,3.9160183630191048
27759.036144578313,37689.9359894853,3.9155799194326946
28048.192771084337,37762.027555750275,3.915149742594507
28337.349397590362,37834.11912201525,3.9147277974938675
28626.506024096387,37906.21068828029,3.9143146326644835
28915.66265060241,37978.30225454534,3.9139094222494193
29204.819277108436,38050.393820810415,3.9135119970145036
29493.97590361446,38122.485387075496,3.9131221877255657
29783.132530120485,38194.576953340584,3.912739825148435
30072.289156626506,38266.66851960569,3.9123647400489405
30361.44578313253,38338.76008587082,3.9119967631929105
30650.602409638555,38410.85165213596,3.911635725346174
30939.75903614458,38482.94321840112,3.911281457274562
31228.915662650605,38555.0347846663,3.9109337897439005
31518.07228915663,38627.126350931496,3.910592553520021
31807.228915662654,38699.217917196656,3.9102584180152924
32096.385542168675,38771.3094834618,3.9099309125424857
32385.5421686747,38843.40104972694,3.909609640113154
32674.698795180724,38915.49261599209,3.909294454987716
32963.85542168675,38987.58418225723,3.908985211426591
33253.01204819277,39059.67574852238,3.9086817636901974
33542.1686746988,39131.767314787525,3.9083839660389543
33831.32530120482,39203.85888105266,3.908091672733282
34120.48192771085,39275.95044731781,3.907804738033598
34409.63855421687,39348.04201358294,3.907523016200321
34698.7951807229,39420.13357984808,3.907246361493871
34987.951807228914,39492.22514611322,3.9069749066341344
35277.10843373494,39564.316712378364,3.9067090053828766
35566.26506024096,39636.40827864352,3.9064480508482573
35855.42168674699,39708.499844908656,3.906191939220299
36144.57831325301,39780.59141117381,3.9059405689007036
36433.73493975904,39852.68297743895,3.9056938405028605
36722.89156626506,39924.7745437041,3.9054516568518407
37012.048192771086,39996.866109969254,3.9052139229844003
37301.20481927711,40068.95767623441,3.904980546148979
37590.361445783135,40141.04924249955,3.904751435805699
37879.51807228916,40213.14080876471,3.9045265036263674
38168.674698795185,40285.23237502987,3.9043056634944766
38457.83132530121,40357.32394129502,3.9040885272079318
38746.987951807234,40429.41550756015,3.903875179871691
39036.14457831326,40501.50707382529,3.9036655575065367
39325.301204819276,40573.59864009043,3.9034595673710655
39614.4578313253,40645.69020635555,3.903257118143499
39903.614457831325,40717.78177262068,3.9030581199216794
40192.77108433735,40789.8733388858,3.9028624842230712
40481.927710843374,40861.96490515092,3.902670123984761
40771.0843373494,40934.056471416035,3.9024809535634586
41060.24096385542,41006.14803768114,3.9022948887354945
41349.39759036145,41078.23960394623,3.902111846696821
41638.55421686747,41150.33117021133,3.9019317435861027
41927.7108433735,41222.42273647643,3.9017544978745593
42216.86746987952,41294.514302741525,3.9015800331467223
42506.02409638555,41366.60586900661,3.901408272026947
42795.18072289157,41438.6974352717,3.901239138546121
43084.337349397596,41510.78900153678,3.90107255814167
43373.49397590361,41582.88056780187,3.9009084576575503
43662.65060240964,41654.97213406694,3.9007467653442545
43951.80722891566,41727.06370033201,3.90058741085881
44240.96385542169,41799.15526659708,3.900430325264777
44530.12048192771,41871.24683286214,3.9002754410322513
44819.27710843374,41943.3383991272,3.9001226969625122
45108.43373493976,42015.429965392264,3.899972143419895
45397.590361445786,42087.52153165733,3.899823636197475
45686.74698795181,42159.613097922396,3.8996771186782917
45975.903614457835,42231.704664187455,3.899532535934883
46265.06024096386,42303.79623045251,3.8993898347292846
46554.216867469884,42375.88779671758,3.899248963513033
46843.37349397591,42447.97936298264,3.8991098724271622
47132.53012048193,42520.07092924771,3.8989725133022066
47421.68674698795,42592.162495512785,3.8988368396581987
47710.843373493975,42664.25406177785,3.8987028067046685
48000.0,42736.34562804294,3.898570371340648
48289.156626506025,42808.43719430802,3.898439492154665
48578.31325301205,42880.528760573114,3.898310129424749
48867.469879518074,42952.620326838194,3.8981822451184267
49156.6265060241,43024.711893103304,3.898055802892724
49445.78313253012,43096.803459368406,3.897930768094167
49734.93975903615,43168.89502563353,3.8978071077587786
50024.09638554217,43240.98659189866,3.8976847906120815
50313.2530120482,43313.07815816379,3.897563787069099
50602.40963855422,43385.169724428946,3.89744406923435
50891.566265060246,43457.26129069411,3.8973256109018557
51180.72289156627,43529.35285695929,3.897208387555134
51469.87951807229,43601.444423224464,3.8970918825581826
51759.03614457831,43673.53598948961,3.896974259066575
52048.19277108434,43745.62755575477,3.896857287422698
52337.34939759036,43817.71912201993,3.8967409045652044
52626.50602409639,43889.8106882851,3.896625047469013
52915.66265060241,43961.90225455028,3.896509653145306
53204.819277108436,44033.99382081546,3.896394658641529
53493.97590361446,44106.08538708065,3.896280001041392
53783.132530120485,44178.17695334585,3.896165617464868
54072.28915662651,44250.268519611054,3.896051445068195
54361.445783132534,44322.360085876266,3.8959374210438753
54650.60240963856,44394.45165214149,3.895823482620673
54939.759036144584,44466.54321840672,3.895709567063618
55228.91566265061,44538.63478467193,3.895594372445376
55518.072289156626,44610.72635093712,3.8954771306501907
55807.22891566265,44682.8179172023,3.8953589748093234
56096.385542168675,44754.909483467476,3.8952397688943017
56385.5421686747,44827.00104973264,3.895119374065823
56674.698795180724,44899.0926159978,3.8949976486737503
56963.85542168675,44971.18418226295,3.894874448257112
57253.01204819277,45043.275748528096,3.8947496255441063
57542.1686746988,45115.36731479323,3.8946230304520952
57831.32530120482,45187.458881058345,3.8944945100876076
58120.48192771085,45259.55044732344,3.8943639087463437
58409.63855421687,45331.64201358852,3.8942310679131635
58698.7951807229,45403.73357985357,3.8940958262620997
58987.95180722892,45475.825146118725,3.893948219008592
59277.108433734946,45547.9167123839,3.8937910196139343
59566.26506024097,45620.00827864905,3.8936271400859646
59855.42168674699,45692.09984491415,3.893456078620978
60144.57831325301,45764.191411179185,3.8932772522840193
60433.73493975904,45836.282977444134,3.8930901071425406
60722.89156626506,45908.37454370916,3.8928874756585197
61012.048192771086,45980.46610997421,3.89266916317489
61301.20481927711,46052.557676239325,3.8924324752310744
61590.361445783135,46124.64924250454,3.8921743776085345
61879.51807228916,46196.740808769755,3.891892400369399
62168.674698795185,46268.832375034945,3.891583195315143
62457.83132530121,46340.92394130014,3.891243153341015
62746.987951807234,46413.0155075653,3.8908685755300363
63036.14457831326,46485.107073830455,3.8904508214202855
63325.30120481928,46557.1986400956,3.889982308938871
63614.45783132531,46629.29020636071,3.889458098217962
63903.614457831325,46701.38177262577,3.8888709387802494
64192.77108433735,46773.473338890806,3.8882074060257645
64481.927710843374,46845.56490515585,3.887449962472329
64771.0843373494,46917.656471420916,3.8865899846772565
65060.24096385542,46989.74803768599,3.885613494134118
65349.39759036145,47061.83960395104,3.884496676451708
65638.55421686747,47133.9311702161,3.8832183688105872
65927.7108433735,47206.02273648116,3.8817593205423218
66216.86746987952,47278.114302746224,3.880089661755175
66506.02409638555,47350.20586901127,3.878161728144978
66795.18072289157,47422.297435276276,3.8759472484525537
67084.3373493976,47494.38900154135,3.873396109841742
67373.49397590362,47566.48056780653,3.8704589433733143
67662.65060240965,47638.572134071816,3.867077691433836
67951.80722891567,47710.663700337056,3.863170728284288
68240.9638554217,47782.755266602275,3.8586657021164497
68530.12048192772,47854.84683286746,3.853459602500057
68819.27710843374,47926.93839913255,3.847446297239036
69108.43373493977,47999.02996539759,3.840502929424296
69397.5903614458,48071.12153166265,3.8324869618276565
69686.74698795182,48143.21309792774,3.823236236954169
69975.90361445783,48215.30466419286,3.8125555778031517
70265.06024096385,48287.39623045796,3.8002350065251957
70554.21686746988,48359.48779672287,3.786027227659322
70843.3734939759,48431.57936298778,3.7696581920159087
71132.53012048193,48503.670929253,3.7508186739873026
71421.68674698795,48575.76249551822,3.7291564972131064
71710.84337349398,48647.85406178324,3.704286591228918
72000.0,48719.945628048205,3.675768901512503
