Time,Concentration,Voltage,I_INT,I_SEI,Length
0.0,19986.0,0.24138368778043112,0.06682032939814815,3.7982270983039195e-65,5e-09
144.28857715430863,19930.69633305913,0.2413122862847679,0.06682032939814815,-5.787271447013633e-147,5e-09
288.57715430861725,19896.625975297226,0.24126976366264385,0.06682032939814815,-4.692382254335412e-148,5e-09
432.86573146292585,19865.370212827827,0.24123014293842107,0.06682032939814815,0.0,5e-09
577.1543086172345,19834.24925090616,0.24119066014131726,0.06682032939814815,0.0,5e-09
721.4428857715432,19803.939746994052,0.241151279583581,0.06682032939814815,0.0,5e-09
865.7314629258517,19773.716415613933,0.24111190988312275,0.06682032939814815,0.0,5e-09
1010.0200400801604,19743.493084233818,0.24107254018266447,0.06682032939814815,0.0,5e-09
1154.308617234469,19713.2697528537,0.2410331704822062,0.06682032939814815,0.0,5e-09
1298.5971943887776,19683.181719694778,0.24099291060406297,0.06682032939814815,0.0,5e-09
1442.8857715430863,19653.12583660822,0.24095243919854906,0.06682032939814815,0.0,5e-09
1587.1743486973949,19623.06995352166,0.24091196779303514,0.06682032939814815,0.0,5e-09
1731.4629258517034,19593.0140704351,0.24087149638752126,0.06682032939814815,0.0,5e-09
1875.7515030060122,19562.95818734854,0.24083102498200734,0.06682032939814815,0.0,5e-09
2020.0400801603207,19532.902304261985,0.24079055357649343,0.06682032939814815,0.0,5e-09
2164.3286573146293,19502.846421175425,0.2407500821709795,0.06682032939814815,0.0,5e-09
2308.617234468938,19472.790538088866,0.24070961076546563,0.06682032939814815,0.0,5e-09
2452.905811623247,19442.745022869567,0.2406687098782324,0.06682032939814815,0.0,5e-09
2597.194388777555,19412.70597073636,0.24062754126213526,0.06682032939814815,0.0,5e-09
2741.482965931864,19382.666918603147,0.2405863726460381,0.06682032939814815,0.0,5e-09
2885.7715430861726,19352.627866469935,0.24054520402994092,0.06682032939814815,0.0,5e-09
3030.060120240481,19322.588814336727,0.24050403541384377,0.06682032939814815,0.0,5e-09
3174.3486973947897,19292.549762203515,0.2404628667977466,0.06682032939814815,0.0,5e-09
3318.6372745490985,19262.510710070306,0.24042169818164943,0.06682032939814815,0.0,5e-09
3462.925851703407,19232.471657937094,0.24038052956555225,0.06682032939814815,0.0,5e-09
3607.2144288577156,19202.432605803882,0.2403393609494551,0.06682032939814815,0.0,5e-09
3751.5030060120243,19172.393553670674,0.24029819233335792,0.06682032939814815,0.0,5e-09
3895.791583166333,19142.354501537462,0.24025702371726076,0.06682032939814815,0.0,5e-09
4040.0801603206414,19112.315449404254,0.2402158551011636,0.06682032939814815,0.0,5e-09
4184.36873747495,19082.27639727104,0.24017468648506643,0.06682032939814815,0.0,5e-09
4328.6573146292585,19052.23734513783,0.24013351786896928,0.06682032939814815,0.0,5e-09
4472.945891783567,19022.19829300462,0.2400923492528721,0.06682032939814815,0.0,5e-09
4617.234468937876,18992.15924087141,0.24005118063677494,0.06682032939814815,0.0,5e-09
4761.523046092185,18962.120391978584,0.24001055367300522,0.06682032939814815,0.0,5e-09
4905.811623246494,18932.082215881506,0.239971719765216,0.06682032939814815,0.0,5e-09
5050.100200400802,18902.04403978443,0.2399328858574268,0.06682032939814815,0.0,5e-09
5194.38877755511,18872.00586368735,0.23989405194963762,0.06682032939814815,0.0,5e-09
5338.677354709419,18841.967687590273,0.23985521804184842,0.06682032939814815,0.0,5e-09
5482.965931863728,18811.929511493196,0.23981638413405923,0.06682032939814815,0.0,5e-09
5627.2545090180365,18781.891335396118,0.23977755022627004,0.06682032939814815,0.0,5e-09
5771.543086172345,18751.85315929904,0.23973871631848084,0.06682032939814815,0.0,5e-09
5915.831663326654,18721.81498320196,0.23969988241069162,0.06682032939814815,0.0,5e-09
6060.120240480962,18691.77680710488,0.23966104850290243,0.06682032939814815,0.0,5e-09
6204.408817635271,18661.738631007804,0.23962221459511324,0.06682032939814815,0.0,5e-09
6348.697394789579,18631.700454910726,0.23958338068732404,0.06682032939814815,0.0,5e-09
6492.985971943888,18601.66227881365,0.23954454677953485,0.06682032939814815,0.0,5e-09
6637.274549098197,18571.62410271657,0.23950571287174566,0.06682032939814815,0.0,5e-09
6781.563126252506,18541.585926619493,0.23946687896395646,0.06682032939814815,0.0,5e-09
6925.851703406814,18511.547750522415,0.23942804505616724,0.06682032939814815,0.0,5e-09
7070.140280561122,18481.509574425338,0.23938921114837805,0.06682032939814815,0.0,5e-09
7214.428857715431,18451.47139832826,0.23935037724058886,0.06682032939814815,0.0,5e-09
7358.71743486974,18421.433222231182,0.23931154333279966,0.06682032939814815,0.0,5e-09
7503.006012024049,18391.395046134105,0.23927270942501047,0.06682032939814815,0.0,5e-09
7647.2945891783575,18361.356870037023,0.23923387551722128,0.06682032939814815,0.0,5e-09
7791.583166332666,18331.318693939946,0.23919504160943209,0.06682032939814815,0.0,5e-09
7935.871743486974,18301.280517842868,0.23915620770164286,0.06682032939814815,0.0,5e-09
8080.160320641283,18271.24234174579,0.23911737379385367,0.06682032939814815,0.0,5e-09
8224.448897795592,18241.204165648713,0.23907853988606448,0.06682032939814815,0.0,5e-09
8368.7374749499,18211.165989551635,0.23903970597827529,0.06682032939814815,0.0,5e-09
8513.02605210421,18181.127813454557,0.2390008720704861,0.06682032939814815,0.0,5e-09
8657.314629258517,18151.08963735748,0.2389620381626969,0.06682032939814815,0.0,5e-09
8801.603206412827,18121.051461260402,0.2389232042549077,0.06682032939814815,0.0,5e-09
8945.891783567135,18091.013285163324,0.23888437034711849,0.06682032939814815,0.0,5e-09
9090.180360721444,18060.975109066247,0.2388455364393293,0.06682032939814815,0.0,5e-09
9234.468937875752,18030.936932969165,0.2388067025315401,0.06682032939814815,0.0,5e-09
9378.75751503006,18000.898756872088,0.2387678686237509,0.06682032939814815,0.0,5e-09
9523.04609218437,17970.860591528515,0.23873388938606485,0.06682032939814815,0.0,5e-09
9667.334669338677,17940.82243860709,0.23870551812936006,0.06682032939814815,0.0,5e-09
9811.623246492987,17910.784285685666,0.23867714687265523,0.06682032939814815,0.0,5e-09
9955.911823647295,17880.746132764245,0.23864877561595044,0.06682032939814815,0.0,5e-09
10100.200400801605,17850.70797984282,0.23862040435924564,0.06682032939814815,0.0,5e-09
10244.488977955913,17820.669826921396,0.23859203310254082,0.06682032939814815,0.0,5e-09
10388.77755511022,17790.631673999975,0.23856366184583602,0.06682032939814815,0.0,5e-09
10533.06613226453,17760.59352107855,0.23853529058913123,0.06682032939814815,0.0,5e-09
10677.354709418838,17730.555368157125,0.2385069193324264,0.06682032939814815,0.0,5e-09
10821.643286573148,17700.517215235704,0.2384785480757216,0.06682032939814815,0.0,5e-09
10965.931863727455,17670.47906231428,0.23845017681901678,0.06682032939814815,0.0,5e-09
11110.220440881763,17640.440909392855,0.238421805562312,0.06682032939814815,0.0,5e-09
11254.509018036073,17610.40275647143,0.2383934343056072,0.06682032939814815,0.0,5e-09
11398.79759519038,17580.36460355001,0.23836506304890237,0.06682032939814815,0.0,5e-09
11543.08617234469,17550.326450628585,0.23833669179219757,0.06682032939814815,0.0,5e-09
11687.374749498998,17520.28829770716,0.23830832053549278,0.06682032939814815,0.0,5e-09
11831.663326653308,17490.25014478574,0.23827994927878796,0.06682032939814815,0.0,5e-09
11975.951903807616,17460.211991864315,0.23825157802208316,0.06682032939814815,0.0,5e-09
12120.240480961924,17430.17383894289,0.23822320676537836,0.06682032939814815,0.0,5e-09
12264.529058116234,17400.13568602147,0.23819483550867354,0.06682032939814815,0.0,5e-09
12408.817635270541,17370.097533100045,0.23816646425196875,0.06682032939814815,0.0,5e-09
12553.106212424851,17340.05938017862,0.23813809299526392,0.06682032939814815,0.0,5e-09
12697.394789579159,17310.0212272572,0.23810972173855913,0.06682032939814815,0.0,5e-09
12841.683366733469,17279.983074335774,0.23808135048185433,0.06682032939814815,0.0,5e-09
12985.971943887776,17249.94492141435,0.2380529792251495,0.06682032939814815,0.0,5e-09
13130.260521042084,17219.906768492925,0.2380246079684447,0.06682032939814815,0.0,5e-09
13274.549098196394,17189.868615571504,0.23799623671173992,0.06682032939814815,0.0,5e-09
13418.837675350702,17159.83046265008,0.2379678654550351,0.06682032939814815,0.0,5e-09
13563.126252505012,17129.792309728655,0.2379394941983303,0.06682032939814815,0.0,5e-09
13707.41482965932,17099.754156807234,0.2379111229416255,0.06682032939814815,0.0,5e-09
13851.703406813627,17069.71600388581,0.23788275168492068,0.06682032939814815,0.0,5e-09
13995.991983967937,17039.677850964385,0.23785438042821588,0.06682032939814815,0.0,5e-09
14140.280561122245,17009.639698042964,0.23782600917151106,0.06682032939814815,0.0,5e-09
14284.569138276554,16979.60154512154,0.23779763791480626,0.06682032939814815,0.0,5e-09
14428.857715430862,16949.563392200114,0.23776926665810147,0.06682032939814815,0.0,5e-09
14573.146292585172,16919.525239278693,0.23774089540139665,0.06682032939814815,0.0,5e-09
14717.43486973948,16889.48708635727,0.23771252414469185,0.06682032939814815,0.0,5e-09
14861.723446893788,16859.448933435844,0.23768415288798705,0.06682032939814815,0.0,5e-09
15006.012024048097,16829.410780514423,0.23765578163128223,0.06682032939814815,0.0,5e-09
15150.300601202405,16799.372627593,0.23762741037457744,0.06682032939814815,0.0,5e-09
15294.589178356715,16769.334474671574,0.2375990391178726,0.06682032939814815,0.0,5e-09
15438.877755511023,16739.29632175015,0.23757066786116782,0.06682032939814815,0.0,5e-09
15583.166332665332,16709.25816882873,0.23754229660446302,0.06682032939814815,0.0,5e-09
15727.45490981964,16679.220015907304,0.2375139253477582,0.06682032939814815,0.0,5e-09
15871.743486973948,16649.18186298588,0.2374855540910534,0.06682032939814815,0.0,5e-09
16016.032064128258,16619.143710064458,0.2374571828343486,0.06682032939814815,0.0,5e-09
16160.320641282566,16589.105557143033,0.23742881157764378,0.06682032939814815,0.0,5e-09
16304.609218436875,16559.06740422161,0.237400440320939,0.06682032939814815,0.0,5e-09
16448.897795591183,16529.029251300188,0.2373720690642342,0.06682032939814815,0.0,5e-09
16593.18637274549,16498.991098378763,0.23734369780752937,0.06682032939814815,0.0,5e-09
16737.4749498998,16468.95294545734,0.23731532655082457,0.06682032939814815,0.0,5e-09
16881.76352705411,16438.914792535918,0.23728695529411975,0.06682032939814815,0.0,5e-09
17026.05210420842,16408.876639614493,0.23725858403741495,0.06682032939814815,0.0,5e-09
17170.340681362726,16378.838486693068,0.23723021278071016,0.06682032939814815,0.0,5e-09
17314.629258517034,16348.800333771645,0.23720184152400534,0.06682032939814815,0.0,5e-09
17458.917835671346,16318.762180850223,0.23717347026730054,0.06682032939814815,0.0,5e-09
17603.206412825653,16288.724027928798,0.23714509901059574,0.06682032939814815,0.0,5e-09
17747.49498997996,16258.685875007375,0.23711672775389092,0.06682032939814815,0.0,5e-09
17891.78356713427,16228.647722085952,0.23708835649718613,0.06682032939814815,0.0,5e-09
18036.072144288577,16198.609569164528,0.23705998524048133,0.06682032939814815,0.0,5e-09
18180.36072144289,16168.571416243105,0.2370316139837765,0.06682032939814815,0.0,5e-09
18324.649298597196,16138.53326332168,0.2370032427270717,0.06682032939814815,0.0,5e-09
18468.937875751504,16108.495110400258,0.2369748714703669,0.06682032939814815,0.0,5e-09
18613.226452905812,16078.456957478835,0.2369465002136621,0.06682032939814815,0.0,5e-09
18757.51503006012,16048.41880455741,0.2369181289569573,0.06682032939814815,0.0,5e-09
18901.80360721443,16018.380651635987,0.23688975770025247,0.06682032939814815,0.0,5e-09
19046.09218436874,15988.342499001044,0.23700312399361517,0.06682032939814815,0.0,5e-09
19190.380761523047,15958.304346388326,0.23712748716586243,0.06682032939814815,0.0,5e-09
19334.669338677355,15928.266193775606,0.2372518503381097,0.06682032939814815,0.0,5e-09
19478.957915831663,15898.228041162887,0.23737621351035693,0.06682032939814815,0.0,5e-09
19623.246492985974,15868.189888550169,0.2375005766826042,0.06682032939814815,0.0,5e-09
19767.535070140282,15838.151735937448,0.23762493985485145,0.06682032939814815,0.0,5e-09
19911.82364729459,15808.11358332473,0.23774930302709868,0.06682032939814815,0.0,5e-09
20056.112224448898,15778.075430712011,0.23787366619934594,0.06682032939814815,0.0,5e-09
20200.40080160321,15748.037278099291,0.2379980293715932,0.06682032939814815,0.0,5e-09
20344.689378757517,15717.999125486573,0.23812239254384043,0.06682032939814815,0.0,5e-09
20488.977955911825,15687.960972873854,0.2382467557160877,0.06682032939814815,0.0,5e-09
20633.266533066133,15657.922820261134,0.23837111888833495,0.06682032939814815,0.0,5e-09
20777.55511022044,15627.884667648415,0.2384954820605822,0.06682032939814815,0.0,5e-09
20921.843687374752,15597.846515035697,0.23861984523282945,0.06682032939814815,0.0,5e-09
21066.13226452906,15567.808362422977,0.2387442084050767,0.06682032939814815,0.0,5e-09
21210.420841683368,15537.770209810258,0.23886857157732394,0.06682032939814815,0.0,5e-09
21354.709418837676,15507.73205719754,0.2389929347495712,0.06682032939814815,0.0,5e-09
21498.997995991984,15477.69390458482,0.23911729792181846,0.06682032939814815,0.0,5e-09
21643.286573146295,15447.655751972101,0.2392416610940657,0.06682032939814815,0.0,5e-09
21787.575150300603,15417.617599359382,0.23936602426631295,0.06682032939814815,0.0,5e-09
21931.86372745491,15387.579446746662,0.23949038743856021,0.06682032939814815,0.0,5e-09
22076.15230460922,15357.541294133944,0.23961475061080745,0.06682032939814815,0.0,5e-09
22220.440881763527,15327.503141521225,0.2397391137830547,0.06682032939814815,0.0,5e-09
22364.72945891784,15297.464988908505,0.23986347695530197,0.06682032939814815,0.0,5e-09
22509.018036072146,15267.426836295786,0.2399878401275492,0.06682032939814815,0.0,5e-09
22653.306613226454,15237.388683683068,0.24011220329979646,0.06682032939814815,0.0,5e-09
22797.59519038076,15207.350531070348,0.24023656647204372,0.06682032939814815,0.0,5e-09
22941.883767535073,15177.31237845763,0.24036092964429095,0.06682032939814815,0.0,5e-09
23086.17234468938,15147.27422584491,0.24048529281653822,0.06682032939814815,0.0,5e-09
23230.46092184369,15117.23607323219,0.24060965598878548,0.06682032939814815,0.0,5e-09
23374.749498997997,15087.19792061947,0.2407340191610327,0.06682032939814815,0.0,5e-09
23519.038076152305,15057.159768006752,0.24085838233327997,0.06682032939814815,0.0,5e-09
23663.326653306616,15027.121615394033,0.2409827455055272,0.06682032939814815,0.0,5e-09
23807.615230460924,14997.083462781315,0.24110710867777446,0.06682032939814815,0.0,5e-09
23951.903807615232,14967.045310168596,0.24123147185002172,0.06682032939814815,0.0,5e-09
24096.19238476954,14937.007157555876,0.24135583502226898,0.06682032939814815,0.0,5e-09
24240.480961923848,14906.969004943157,0.24148019819451622,0.06682032939814815,0.0,5e-09
24384.76953907816,14876.930852330439,0.24160456136676348,0.06682032939814815,0.0,5e-09
24529.058116232467,14846.892699717719,0.24172892453901074,0.06682032939814815,0.0,5e-09
24673.346693386775,14816.854547105,0.24185328771125797,0.06682032939814815,0.0,5e-09
24817.635270541083,14786.81639449228,0.24197765088350523,0.06682032939814815,0.0,5e-09
24961.92384769539,14756.778241879561,0.2421020140557525,0.06682032939814815,0.0,5e-09
25106.212424849702,14726.740089266843,0.24222637722799972,0.06682032939814815,0.0,5e-09
25250.50100200401,14696.701936654123,0.24235074040024698,0.06682032939814815,0.0,5e-09
25394.789579158318,14666.663784041404,0.24247510357249424,0.06682032939814815,0.0,5e-09
25539.078156312626,14636.625631428684,0.24259946674474148,0.06682032939814815,0.0,5e-09
25683.366733466937,14606.587478815967,0.24272382991698874,0.06682032939814815,0.0,5e-09
25827.655310621245,14576.549326203247,0.24284819308923597,0.06682032939814815,0.0,5e-09
25971.943887775553,14546.511173590528,0.24297255626148323,0.06682032939814815,0.0,5e-09
26116.23246492986,14516.473020977808,0.2430969194337305,0.06682032939814815,0.0,5e-09
26260.52104208417,14486.43486836509,0.24322128260597775,0.06682032939814815,0.0,5e-09
26404.80961923848,14456.39671575237,0.24334564577822498,0.06682032939814815,0.0,5e-09
26549.098196392788,14426.35856313965,0.24347000895047224,0.06682032939814815,0.0,5e-09
26693.386773547096,14396.320410526932,0.2435943721227195,0.06682032939814815,0.0,5e-09
26837.675350701404,14366.282257914212,0.24371873529496674,0.06682032939814815,0.0,5e-09
26981.96392785571,14336.244105301494,0.243843098467214,0.06682032939814815,0.0,5e-09
27126.252505010023,14306.205952688775,0.24396746163946126,0.06682032939814815,0.0,5e-09
27270.54108216433,14276.167800076055,0.2440918248117085,0.06682032939814815,0.0,5e-09
27414.82965931864,14246.129647463336,0.24421618798395575,0.06682032939814815,0.0,5e-09
27559.118236472947,14216.091494850618,0.244340551156203,0.06682032939814815,0.0,5e-09
27703.406813627254,14186.0533422379,0.24446491432845024,0.06682032939814815,0.0,5e-09
27847.695390781566,14156.01518962518,0.2445892775006975,0.06682032939814815,0.0,5e-09
27991.983967935874,14125.97703701246,0.24471364067294474,0.06682032939814815,0.0,5e-09
28136.27254509018,14095.938884399742,0.244838003845192,0.06682032939814815,0.0,5e-09
28280.56112224449,14065.900731787022,0.24496236701743926,0.06682032939814815,0.0,5e-09
28424.8496993988,14035.862579174303,0.2450867301896865,0.06682032939814815,0.0,5e-09
28569.13827655311,14005.824426561583,0.24521109336193375,0.06682032939814815,0.0,5e-09
28713.426853707417,13975.786273948865,0.245335456534181,0.06682032939814815,0.0,5e-09
28857.715430861725,13945.748121336146,0.24545981970642824,0.06682032939814815,0.0,5e-09
29002.004008016032,13915.709968723426,0.2455841828786755,0.06682032939814815,0.0,5e-09
29146.292585170344,13885.671816110707,0.24570854605092277,0.06682032939814815,0.0,5e-09
29290.58116232465,13855.633663497989,0.24583290922317003,0.06682032939814815,0.0,5e-09
29434.86973947896,13825.595510885269,0.24595727239541726,0.06682032939814815,0.0,5e-09
29579.158316633268,13795.55735827255,0.24608163556766452,0.06682032939814815,0.0,5e-09
29723.446893787575,13765.519205659832,0.24620599873991178,0.06682032939814815,0.0,5e-09
29867.735470941887,13735.481053047111,0.246330361912159,0.06682032939814815,0.0,5e-09
30012.024048096195,13705.442900434393,0.24645472508440627,0.06682032939814815,0.0,5e-09
30156.312625250503,13675.404747821674,0.2465790882566535,0.06682032939814815,0.0,5e-09
30300.60120240481,13645.366595208954,0.24670345142890077,0.06682032939814815,0.0,5e-09
30444.889779559122,13615.328442596236,0.24682781460114803,0.06682032939814815,0.0,5e-09
30589.17835671343,13585.290289983517,0.24695217777339526,0.06682032939814815,0.0,5e-09
30733.466933867738,13555.252137370797,0.24707654094564252,0.06682032939814815,0.0,5e-09
30877.755511022046,13525.213984758078,0.24720090411788978,0.06682032939814815,0.0,5e-09
31022.044088176353,13495.17583214536,0.247325267290137,0.06682032939814815,0.0,5e-09
31166.332665330665,13465.13767953264,0.24744963046238427,0.06682032939814815,0.0,5e-09
31310.621242484973,13435.099526919921,0.24757399363463153,0.06682032939814815,0.0,5e-09
31454.90981963928,13405.0613743072,0.24769835680687877,0.06682032939814815,0.0,5e-09
31599.19839679359,13375.023221694482,0.24782271997912603,0.06682032939814815,0.0,5e-09
31743.486973947896,13344.985069081764,0.2479470831513733,0.06682032939814815,0.0,5e-09
31887.775551102208,13314.946916469045,0.24807144632362052,0.06682032939814815,0.0,5e-09
32032.064128256516,13284.908763856325,0.24819580949586778,0.06682032939814815,0.0,5e-09
32176.352705410824,13254.870611243607,0.24832017266811504,0.06682032939814815,0.0,5e-09
32320.64128256513,13224.832458630888,0.24844453584036227,0.06682032939814815,0.0,5e-09
32464.92985971944,13194.794306018168,0.24856889901260953,0.06682032939814815,0.0,5e-09
32609.21843687375,13164.75615340545,0.2486932621848568,0.06682032939814815,0.0,5e-09
32753.50701402806,13134.718000792729,0.24881762535710403,0.06682032939814815,0.0,5e-09
32897.79559118237,13104.67984818001,0.2489419885293513,0.06682032939814815,0.0,5e-09
